#Wavelength(Ang.A)  F_lambda(10^-12ergs/s/cm^2/A)
1150.58   21.85
1152.26   19.89
1153.93   17.94
1155.61   16.33
1157.29   15.29
1158.96   14.25
1160.64   13.56
1162.31   13.44
1163.99   13.31
1165.67   13.06
1167.34   12.60
1169.02   12.15
1170.70   11.68
1172.37   11.20
1174.05   10.73
1175.73   10.56
1177.40   10.78
1179.08   11.01
1180.75   11.06
1182.43   10.90
1184.11   10.74
1185.78   10.18
1187.46   9.161
1189.14   8.146
1190.81   7.256
1192.49   6.498
1194.17   5.741
1195.84   5.219
1197.52   4.932
1199.19   4.644
1200.87   4.109
1202.55   3.346
1204.22   2.584
1205.90   2.001
1207.58   1.574
1209.25   1.148
1210.93   0.9378
1212.60   0.9026
1214.28   0.8674
1215.96   1.085
1217.63   1.492
1219.31   1.899
1220.99   2.477
1222.66   3.174
1224.34   3.872
1226.02   4.652
1227.69   5.486
1229.37   6.320
1231.04   7.152
1232.72   7.984
1234.40   8.816
1236.07   9.509
1237.75   10.12
1239.43   10.74
1241.10   11.02
1242.78   11.13
1244.46   11.23
1246.13   11.28
1247.81   11.30
1249.48   11.32
1251.16   11.22
1252.84   11.08
1254.51   10.93
1256.19   10.57
1257.87   10.13
1259.54   9.690
1261.22   9.670
1262.89   9.808
1264.57   9.946
1266.25   10.35
1267.92   10.84
1269.60   11.33
1271.28   11.43
1272.95   11.41
1274.63   11.39
1276.31   11.55
1277.98   11.75
1279.66   11.95
1281.33   12.03
1283.01   12.08
1284.69   12.13
1286.36   11.88
1288.04   11.56
1289.72   11.24
1291.39   10.73
1293.07   10.17
1294.75   9.605
1296.42   9.142
1298.10   8.696
1299.77   8.251
1301.45   8.062
1303.13   7.914
1304.80   7.766
1306.48   8.178
1308.16   8.663
1309.83   9.149
1311.51   9.927
1313.19   10.74
1314.86   11.55
1316.54   11.72
1318.21   11.82
1319.89   11.93
1321.57   11.64
1323.24   11.32
1324.92   11.01
1326.60   10.69
1328.27   10.36
1329.95   10.04
1331.62   9.907
1333.30   9.779
1334.98   9.651
1336.65   10.07
1338.33   10.49
1340.01   10.91
1341.68   11.09
1343.36   11.26
1345.04   11.43
1346.71   11.34
1348.39   11.25
1350.06   11.16
1351.74   11.12
1353.42   11.07
1355.09   11.03
1356.77   10.92
1358.45   10.81
1360.12   10.69
1361.80   10.50
1363.48   10.31
1365.15   10.14
1366.83   10.15
1368.50   10.16
1370.18   10.17
1371.86   10.21
1373.53   10.24
1375.21   10.27
1376.89   10.21
1378.56   10.16
1380.24   10.11
1381.91   10.12
1383.59   10.12
1385.27   10.11
1386.94   10.03
1388.62   9.948
1390.30   9.858
1391.97   9.720
1393.65   9.582
1395.33   9.477
1397.00   9.511
1398.68   9.544
1400.35   9.560
1402.03   9.509
1403.71   9.459
1405.38   9.405
1407.06   9.339
1408.74   9.272
1410.41   9.219
1412.09   9.206
1413.77   9.193
1415.44   9.204
1417.12   9.282
1418.79   9.360
1420.47   9.438
1422.15   9.516
1423.82   9.595
1425.50   9.640
1427.18   9.608
1428.85   9.577
1430.53   9.546
1432.20   9.515
1433.88   9.484
1435.56   9.501
1437.23   9.612
1438.91   9.722
1440.59   9.822
1442.26   9.900
1443.94   9.978
1445.62   10.04
1447.29   10.08
1448.97   10.12
1450.64   10.16
1452.32   10.20
1454.00   10.24
1455.67   10.23
1457.35   10.17
1459.03   10.12
1460.70   10.04
1462.38   9.945
1464.06   9.849
1465.73   9.785
1467.41   9.761
1469.08   9.738
1470.76   9.716
1472.44   9.696
1474.11   9.677
1475.79   9.650
1477.47   9.615
1479.14   9.580
1480.82   9.538
1482.50   9.489
1484.17   9.439
1485.85   9.480
1487.52   9.609
1489.20   9.737
1490.88   9.815
1492.55   9.847
1494.23   9.879
1495.91   9.848
1497.58   9.764
1499.26   9.680
1500.93   9.546
1502.61   9.372
1504.29   9.199
1505.96   9.044
1507.64   8.903
1509.32   8.761
1510.99   8.699
1512.67   8.691
1514.35   8.682
1516.02   8.712
1517.70   8.766
1519.37   8.819
1521.05   8.778
1522.73   8.681
1524.40   8.583
1526.08   8.487
1527.76   8.391
1529.43   8.295
1531.11   8.300
1532.79   8.357
1534.46   8.414
1536.14   8.490
1537.81   8.575
1539.49   8.661
1541.17   8.717
1542.84   8.762
1544.52   8.806
1546.20   8.802
1547.87   8.778
1549.55   8.754
1551.22   8.688
1552.90   8.606
1554.58   8.524
1556.25   8.416
1557.93   8.298
1559.61   8.181
1561.28   8.181
1562.96   8.217
1564.64   8.254
1566.31   8.281
1567.99   8.306
1569.66   8.331
1571.34   8.340
1573.02   8.345
1574.69   8.349
1576.37   8.332
1578.05   8.310
1579.72   8.288
1581.40   8.329
1583.08   8.382
1584.75   8.435
1586.43   8.391
1588.10   8.331
1589.78   8.270
1591.46   8.213
1593.13   8.157
1594.81   8.101
1596.49   8.039
1598.16   7.976
1599.84   7.913
1601.52   7.844
1603.19   7.775
1604.87   7.705
1606.54   7.643
1608.22   7.581
1609.90   7.519
1611.57   7.594
1613.25   7.678
1614.93   7.762
1616.60   7.794
1618.28   7.823
1619.95   7.853
1621.63   7.830
1623.31   7.806
1624.98   7.782
1626.66   7.749
1628.34   7.717
1630.01   7.685
1631.69   7.621
1633.37   7.558
1635.04   7.495
1636.72   7.443
1638.39   7.391
1640.07   7.341
1641.75   7.339
1643.42   7.337
1645.10   7.335
1646.78   7.313
1648.45   7.292
1650.13   7.266
1651.81   7.183
1653.48   7.101
1655.16   7.025
1656.83   7.011
1658.51   6.998
1660.19   6.989
1661.86   7.016
1663.54   7.044
1665.22   7.065
1666.89   7.043
1668.57   7.021
1670.24   7.012
1671.92   7.082
1673.60   7.152
1675.27   7.217
1676.95   7.258
1678.63   7.299
1680.30   7.329
1681.98   7.311
1683.66   7.292
1685.33   7.272
1687.01   7.243
1688.68   7.215
1690.36   7.187
1692.04   7.162
1693.71   7.138
1695.39   7.114
1697.07   7.093
1698.74   7.072
1700.42   7.038
1702.10   6.969
1703.77   6.900
1705.45   6.831
1707.12   6.765
1708.80   6.699
1710.48   6.636
1712.15   6.582
1713.83   6.527
1715.51   6.472
1717.18   6.413
1718.86   6.354
1720.54   6.320
1722.21   6.340
1723.89   6.359
1725.56   6.391
1727.24   6.448
1728.92   6.505
1730.59   6.551
1732.27   6.578
1733.95   6.605
1735.62   6.628
1737.30   6.644
1738.97   6.661
1740.65   6.670
1742.33   6.669
1744.00   6.667
1745.68   6.667
1747.36   6.667
1749.03   6.668
1750.71   6.670
1752.39   6.675
1754.06   6.679
1755.74   6.653
1757.41   6.588
1759.09   6.522
1760.77   6.476
1762.44   6.452
1764.12   6.428
1765.80   6.433
1767.47   6.468
1769.15   6.504
1770.83   6.505
1772.50   6.470
1774.18   6.436
1775.85   6.440
1777.53   6.482
1779.21   6.523
1780.88   6.503
1782.56   6.428
1784.24   6.353
1785.91   6.190
1787.59   5.954
1789.26   5.718
1790.94   5.681
1792.62   5.799
1794.29   5.918
1795.97   6.073
1797.65   6.255
1799.32   6.437
1801.00   6.491
1802.68   6.459
1804.35   6.427
1806.03   6.397
1807.70   6.369
1809.38   6.340
1811.06   6.334
1812.73   6.340
1814.41   6.346
1816.09   6.352
1817.76   6.357
1819.44   6.363
1821.12   6.350
1822.79   6.328
1824.47   6.305
1826.14   6.266
1827.82   6.219
1829.50   6.172
1831.17   6.148
1832.85   6.134
1834.53   6.119
1836.20   6.074
1837.88   6.016
1839.55   5.958
1841.23   5.915
1842.91   5.876
1844.58   5.838
1846.26   5.798
1847.94   5.757
1849.61   5.717
1851.29   5.664
1852.97   5.608
1854.64   5.552
1856.32   5.545
1857.99   5.552
1859.67   5.558
1861.35   5.611
1863.02   5.675
1864.70   5.739
1866.38   5.797
1868.05   5.853
1869.73   5.910
1871.41   5.924
1873.08   5.931
1874.76   5.938
1876.43   5.889
1878.11   5.831
1879.79   5.773
1881.46   5.702
1883.14   5.630
1884.82   5.557
1886.49   5.499
1888.17   5.442
1889.85   5.385
1891.52   5.384
1893.20   5.388
1894.87   5.393
1896.55   5.414
1898.23   5.437
1899.90   5.459
1901.58   5.434
1903.26   5.405
1904.93   5.376
1906.61   5.359
1908.28   5.343
1909.96   5.327
1911.64   5.299
1913.31   5.271
1914.99   5.243
1916.67   5.201
1918.34   5.159
1920.02   5.117
1921.70   5.080
1923.37   5.044
1925.05   5.010
1926.72   5.064
1928.40   5.119
1931.06   5.194
1933.72   5.254
1936.39   5.281
1939.05   5.278
1941.71   5.281
1944.37   5.288
1947.04   5.268
1949.70   5.240
1952.36   5.204
1955.03   5.167
1957.69   5.095
1960.35   5.029
1963.01   5.010
1965.68   4.984
1968.34   4.934
1971.00   4.940
1973.66   5.035
1976.33   5.087
1978.99   5.097
1981.65   5.084
1984.31   5.058
1986.98   5.024
1989.64   4.988
1992.30   4.912
1994.97   4.830
1997.63   4.824
2000.29   4.821
2002.95   4.831
2005.62   4.822
2008.28   4.754
2010.94   4.745
2013.60   4.845
2016.27   4.918
2018.93   4.962
2021.59   4.952
2024.25   4.908
2026.92   4.870
2029.58   4.835
2032.24   4.820
2034.91   4.809
2037.57   4.788
2040.23   4.764
2042.89   4.708
2045.56   4.661
2048.22   4.642
2050.88   4.627
2053.54   4.617
2056.21   4.582
2058.87   4.517
2061.53   4.492
2064.19   4.495
2066.86   4.567
2069.52   4.668
2072.18   4.707
2074.85   4.731
2077.51   4.707
2080.17   4.681
2082.83   4.677
2085.50   4.679
2088.16   4.708
2090.82   4.705
2093.48   4.633
2096.15   4.553
2098.81   4.464
2101.47   4.439
2104.13   4.467
2106.80   4.466
2109.46   4.452
2112.12   4.476
2114.79   4.510
2117.45   4.475
2120.11   4.433
2122.77   4.390
2125.44   4.373
2128.10   4.481
2130.76   4.535
2133.42   4.452
2136.09   4.364
2138.75   4.269
2141.41   4.221
2144.07   4.212
2146.74   4.187
2149.40   4.153
2152.06   4.156
2154.73   4.170
2157.39   4.208
2160.05   4.247
2162.71   4.147
2165.38   4.058
2168.04   4.038
2170.70   4.020
2173.36   4.010
2176.03   3.977
2178.69   3.908
2181.35   3.876
2184.01   3.880
2186.68   3.912
2189.34   3.960
2192.00   3.986
2194.67   4.005
2197.33   4.044
2199.99   4.086
2202.65   4.023
2205.32   3.955
2207.98   3.848
2210.64   3.762
2213.30   3.747
2215.97   3.736
2218.63   3.735
2221.29   3.698
2223.95   3.623
2226.62   3.610
2229.28   3.638
2231.94   3.627
2234.61   3.601
2237.27   3.612
2239.93   3.630
2242.59   3.584
2245.26   3.544
2247.92   3.568
2250.58   3.602
2253.24   3.670
2255.91   3.700
2258.57   3.655
2261.23   3.599
2263.90   3.529
2266.56   3.503
2269.22   3.507
2271.88   3.536
2274.55   3.574
2277.21   3.617
2279.87   3.661
2282.53   3.598
2285.20   3.532
2287.86   3.503
2290.52   3.484
2293.18   3.503
2295.85   3.521
2298.51   3.535
2301.17   3.553
2303.83   3.576
2306.50   3.569
2309.16   3.539
2311.82   3.543
2314.49   3.563
2317.15   3.519
2319.81   3.461
2322.47   3.429
2325.14   3.399
2327.80   3.368
2330.46   3.344
2333.12   3.356
2335.79   3.356
2338.45   3.329
2341.11   3.310
2343.77   3.300
2346.44   3.286
2349.10   3.269
2351.76   3.250
2354.43   3.231
2357.09   3.252
2359.75   3.283
2362.41   3.242
2365.08   3.193
2367.74   3.177
2370.40   3.170
2373.06   3.216
2375.73   3.245
2378.39   3.226
2381.05   3.200
2383.71   3.161
2386.38   3.110
2389.04   3.045
2391.70   3.041
2394.37   3.071
2397.03   3.139
2399.69   3.220
2402.35   3.204
2405.02   3.175
2407.68   3.091
2410.34   3.013
2413.00   2.978
2415.67   2.971
2418.33   3.044
2420.99   3.097
2423.66   3.118
2426.32   3.156
2428.98   3.210
2431.64   3.204
2434.31   3.161
2436.97   3.123
2439.63   3.087
2442.29   3.118
2444.96   3.160
2447.62   3.193
2450.28   3.224
2452.94   3.239
2455.61   3.263
2458.27   3.316
2460.93   3.341
2463.59   3.314
2466.26   3.254
2468.92   3.158
2471.58   3.096
2474.25   3.057
2476.91   3.058
2479.57   3.076
2482.23   3.096
2484.90   3.116
2487.56   3.115
2490.22   3.108
2492.88   3.042
2495.55   3.007
2498.21   3.095
2500.87   3.164
2503.54   3.195
2506.20   3.198
2508.86   3.168
2511.52   3.142
2514.19   3.118
2516.85   3.110
2519.51   3.109
2522.17   3.093
2524.84   3.073
2527.50   3.045
2530.16   3.018
2532.82   3.022
2535.49   3.021
2538.15   3.003
2540.81   2.986
2543.48   2.974
2546.14   2.977
2548.80   3.000
2551.46   3.001
2554.13   2.985
2556.79   2.990
2559.45   3.004
2562.11   3.032
2564.78   3.064
2567.44   3.090
2570.10   3.116
2572.76   3.131
2575.43   3.118
2578.09   2.964
2580.75   2.841
2583.42   2.797
2586.08   2.811
2588.74   2.907
2591.40   2.986
2594.07   3.049
2596.73   3.071
2599.39   3.070
2602.05   3.019
2604.72   2.953
2607.38   2.967
2610.04   2.990
2612.70   3.025
2615.37   3.054
2618.03   3.046
2620.69   3.037
2623.35   3.024
2626.02   3.002
2628.68   2.967
2631.34   2.969
2634.01   3.007
2636.67   3.040
2639.33   3.071
2641.99   3.082
2644.66   3.087
2647.32   3.086
2649.98   3.084
2652.64   3.095
2655.31   3.098
2657.97   3.042
2660.63   2.990
2663.30   2.949
2665.96   2.913
2668.62   2.888
2671.28   2.873
2673.95   2.869
2676.61   2.899
2679.27   2.950
2681.93   2.973
2684.60   2.984
2687.26   2.976
2689.92   2.965
2692.58   2.907
2695.25   2.852
2697.91   2.841
2700.57   2.840
2703.24   2.873
2705.90   2.889
2708.56   2.872
2711.22   2.849
2713.89   2.820
2716.55   2.803
2719.21   2.794
2721.87   2.776
2724.54   2.753
2727.20   2.774
2729.86   2.803
2732.52   2.828
2735.19   2.851
2737.85   2.859
2740.51   2.852
2743.18   2.786
2745.84   2.737
2748.50   2.725
2751.16   2.707
2753.83   2.682
2756.49   2.668
2759.15   2.663
2761.81   2.678
2764.48   2.702
2767.14   2.687
2769.80   2.662
2772.46   2.652
2775.13   2.645
2777.79   2.656
2780.45   2.658
2783.12   2.616
2785.78   2.582
2788.44   2.569
2791.10   2.592
2793.77   2.666
2796.43   2.680
2799.09   2.641
2801.75   2.611
2804.42   2.585
2807.08   2.596
2809.74   2.617
2812.40   2.642
2815.07   2.669
2817.73   2.729
2820.39   2.777
2823.06   2.756
2825.72   2.721
2828.38   2.651
2831.04   2.592
2833.71   2.551
2836.37   2.548
2839.03   2.582
2841.69   2.598
2844.36   2.603
2847.02   2.586
2849.68   2.562
2852.34   2.540
2855.01   2.518
2857.67   2.527
2860.33   2.539
2863.00   2.568
2865.66   2.597
2868.32   2.622
2870.98   2.630
2873.65   2.611
2876.31   2.588
2878.97   2.561
2881.63   2.555
2884.30   2.564
2886.96   2.545
2889.62   2.516
2892.28   2.536
2894.95   2.564
2897.61   2.590
2900.27   2.612
2902.94   2.602
2905.60   2.590
2908.26   2.576
2910.92   2.567
2913.59   2.570
2916.25   2.569
2918.91   2.563
2921.57   2.560
2924.24   2.559
2926.90   2.544
2929.56   2.524
2932.22   2.526
2934.89   2.533
2937.55   2.516
2940.21   2.502
2942.88   2.532
2945.54   2.551
2948.20   2.525
2950.86   2.514
2953.53   2.533
2956.19   2.550
2958.85   2.566
2961.51   2.550
2964.18   2.511
2966.84   2.497
2969.50   2.494
2972.16   2.491
2974.83   2.488
2977.49   2.494
2980.15   2.498
2982.82   2.456
2985.48   2.421
2988.14   2.415
2990.80   2.413
2993.47   2.418
2996.13   2.432
2998.79   2.458
3001.45   2.457
3004.12   2.433
3006.78   2.425
3009.44   2.425
3012.10   2.396
3014.77   2.360
3017.43   2.340
3020.09   2.323
3022.76   2.327
3025.42   2.328
3028.08   2.312
3030.74   2.298
3033.41   2.291
3036.07   2.292
3038.73   2.307
3041.39   2.318
3044.06   2.325
3046.72   2.329
3049.38   2.333
3052.04   2.337
3054.71   2.341
3057.37   2.318
3060.03   2.292
3062.70   2.256
3065.36   2.225
3068.02   2.225
3070.68   2.226
3073.35   2.232
3076.01   2.251
3078.67   2.289
3081.33   2.313
3084.00   2.324
3086.66   2.315
3089.32   2.292
3091.98   2.304
3094.65   2.329
3097.31   2.294
3099.97   2.251
3102.64   2.248
3105.30   2.245
3107.96   2.230
3110.62   2.224
3113.29   2.250
3115.95   2.271
3118.61   2.284
3121.27   2.303
3123.94   2.328
3126.60   2.327
3129.26   2.309
3131.92   2.284
3134.59   2.256
3137.25   2.269
3139.91   2.289
3142.58   2.242
3145.24   2.198
3147.90   2.201
3150.56   2.204
3153.23   2.211
3155.89   2.208
3158.55   2.190
3161.21   2.183
3163.88   2.190
3166.54   2.195
3169.20   2.197
3171.86   2.206
3174.53   2.218
3177.19   2.198
3179.85   2.172
3182.52   2.175
3185.18   2.179
3187.84   2.180
3190.50   2.184
3193.17   2.200
3195.83   2.214
3198.49   2.225
3201.15   2.233
3203.82   2.238
3206.48   2.240
3209.14   2.240
3211.80   2.229
3214.47   2.214
3217.13   2.194
3219.79   2.174
3222.46   2.160
3225.12   2.147
3227.78   2.148
3230.44   2.151
3233.11   2.167
3235.77   2.180
3238.43   2.183
3240.04   2.184
3242.79   2.151
3245.54   2.119
3248.28   2.086
3251.03   2.067
3253.77   2.071
3256.52   2.086
3259.27   2.109
3262.01   2.127
3264.76   2.143
3267.50   2.143
3270.25   2.141
3273.00   2.122
3275.74   2.103
3278.49   2.085
3281.23   2.075
3283.98   2.074
3286.73   2.078
3289.47   2.084
3292.22   2.083
3294.96   2.082
3297.71   2.073
3300.46   2.063
3303.20   2.051
3305.95   2.040
3308.69   2.031
3311.44   2.026
3314.19   2.026
3316.93   2.028
3319.68   2.032
3322.42   2.035
3325.17   2.037
3327.92   2.036
3330.66   2.034
3333.41   2.031
3336.15   2.029
3338.90   2.028
3341.65   2.031
3344.39   2.036
3347.14   2.039
3349.88   2.041
3352.63   2.032
3355.38   2.022
3358.12   2.007
3360.87   1.994
3363.61   1.983
3366.36   1.977
3369.11   1.975
3371.85   1.979
3374.60   1.986
3377.34   1.993
3380.09   1.999
3382.84   1.996
3385.58   1.992
3388.33   1.985
3391.07   1.978
3393.82   1.972
3396.57   1.966
3399.31   1.960
3402.06   1.952
3404.80   1.942
3407.55   1.936
3410.30   1.931
3413.04   1.934
3415.79   1.937
3418.53   1.940
3421.28   1.941
3424.03   1.937
3426.77   1.930
3429.52   1.920
3432.26   1.908
3435.01   1.896
3437.76   1.890
3440.50   1.885
3443.25   1.889
3445.99   1.895
3448.74   1.902
3451.49   1.907
3454.23   1.908
3456.98   1.906
3459.72   1.902
3462.47   1.895
3465.22   1.887
3467.96   1.879
3470.71   1.872
3473.45   1.865
3476.20   1.859
3478.95   1.853
3481.69   1.846
3484.44   1.839
3487.18   1.835
3489.93   1.832
3492.68   1.836
3495.42   1.841
3498.17   1.845
3500.91   1.848
3503.66   1.847
3506.41   1.830
3509.15   1.798
3511.90   1.792
3514.64   1.798
3517.39   1.803
3520.14   1.806
3522.88   1.794
3525.63   1.788
3528.37   1.803
3531.12   1.813
3533.87   1.815
3536.61   1.815
3539.36   1.813
3542.10   1.810
3544.85   1.807
3547.60   1.796
3550.34   1.785
3553.09   1.772
3555.83   1.764
3558.58   1.768
3561.33   1.764
3564.07   1.753
3566.82   1.745
3569.56   1.739
3572.31   1.734
3575.06   1.729
3577.80   1.727
3580.55   1.726
3583.29   1.723
3586.04   1.719
3588.79   1.712
3591.53   1.703
3594.28   1.692
3597.02   1.689
3599.77   1.688
3602.52   1.681
3605.26   1.674
3608.01   1.683
3610.75   1.697
3613.50   1.722
3616.25   1.732
3618.99   1.721
3621.74   1.706
3624.48   1.690
3627.23   1.690
3629.98   1.694
3632.72   1.685
3635.47   1.677
3638.21   1.669
3640.96   1.667
3643.71   1.672
3646.45   1.668
3649.20   1.656
3651.94   1.671
3654.69   1.698
3657.44   1.709
3660.18   1.717
3662.93   1.694
3665.67   1.677
3668.42   1.679
3671.17   1.683
3673.91   1.690
3676.66   1.690
3679.40   1.686
3682.15   1.678
3684.90   1.669
3687.64   1.678
3690.39   1.684
3693.13   1.665
3695.88   1.651
3698.63   1.650
3701.37   1.640
3704.12   1.620
3706.86   1.613
3709.61   1.612
3712.36   1.654
3715.10   1.700
3717.85   1.680
3720.59   1.674
3723.34   1.724
3726.09   1.764
3728.83   1.786
3731.58   1.754
3734.32   1.681
3737.07   1.793
3739.82   1.967
3742.56   1.940
3745.31   1.886
3748.05   1.725
3750.80   1.671
3753.55   1.878
3756.29   2.071
3759.04   2.249
3761.78   2.212
3764.53   2.059
3767.28   1.846
3770.02   1.624
3772.77   1.851
3775.51   2.097
3778.26   2.432
3781.01   2.675
3783.75   2.761
3786.50   2.701
3789.24   2.519
3791.99   2.199
3794.74   1.828
3797.48   1.782
3800.23   1.803
3802.97   2.173
3805.72   2.519
3808.47   2.799
3811.21   2.977
3813.96   3.025
3816.70   3.000
3819.45   2.931
3822.20   2.788
3824.94   2.626
3827.69   2.307
3830.43   2.000
3833.18   1.775
3835.93   1.712
3838.67   1.964
3841.42   2.242
3844.16   2.543
3846.91   2.736
3849.66   2.881
3852.40   2.943
3855.15   2.993
3857.89   3.031
3860.64   3.058
3863.39   3.052
3866.13   3.042
3868.88   3.026
3871.62   2.951
3874.37   2.836
3877.12   2.631
3879.86   2.398
3882.61   2.060
3885.35   1.748
3888.10   1.647
3890.85   1.683
3893.59   2.025
3896.34   2.333
3899.08   2.604
3901.83   2.761
3904.58   2.862
3907.32   2.908
3910.07   2.944
3912.81   2.969
3915.56   2.990
3918.31   2.999
3921.05   2.999
3923.80   2.985
3926.54   2.953
3929.29   2.907
3932.04   2.900
3934.78   2.907
3937.53   2.930
3940.27   2.953
3943.02   2.950
3945.77   2.933
3948.51   2.882
3951.26   2.804
3954.00   2.693
3956.75   2.531
3959.50   2.340
3962.24   2.050
3964.99   1.739
3967.73   1.555
3970.48   1.448
3973.23   1.702
3975.97   1.970
3978.72   2.264
3981.46   2.478
3984.21   2.622
3986.96   2.697
3989.70   2.744
3992.45   2.780
3995.19   2.813
3997.94   2.814
4000.69   2.817
4003.43   2.827
4006.18   2.832
4008.92   2.831
4011.67   2.822
4014.42   2.808
4017.16   2.791
4019.91   2.773
4022.65   2.758
4025.40   2.747
4028.15   2.754
4030.89   2.760
4033.64   2.764
4036.38   2.760
4039.13   2.747
4041.88   2.749
4044.62   2.759
4047.37   2.767
4050.11   2.773
4052.86   2.737
4055.61   2.708
4058.35   2.703
4061.10   2.702
4063.84   2.709
4066.59   2.695
4069.34   2.665
4072.08   2.632
4074.83   2.597
4077.57   2.569
4080.32   2.538
4083.07   2.480
4085.81   2.406
4088.56   2.295
4091.30   2.126
4094.05   1.894
4096.80   1.650
4099.54   1.400
4102.29   1.442
4105.03   1.544
4107.78   1.807
4110.53   2.049
4113.27   2.199
4116.02   2.316
4118.76   2.378
4121.51   2.415
4124.26   2.431
4127.00   2.421
4129.75   2.400
4132.49   2.428
4135.24   2.460
4137.99   2.479
4140.73   2.492
4143.48   2.485
4146.22   2.490
4148.97   2.510
4151.72   2.525
4154.46   2.536
4157.21   2.525
4159.95   2.509
4162.70   2.486
4165.45   2.464
4168.19   2.447
4170.94   2.431
4173.68   2.419
4176.43   2.414
4179.18   2.417
4181.92   2.422
4184.67   2.428
4187.41   2.426
4190.16   2.422
4192.91   2.409
4195.65   2.396
4198.40   2.386
4201.14   2.380
4203.89   2.379
4206.64   2.382
4209.38   2.387
4212.13   2.383
4214.87   2.376
4217.62   2.382
4220.37   2.385
4223.11   2.374
4225.86   2.361
4228.60   2.344
4231.35   2.330
4234.10   2.320
4236.84   2.319
4239.59   2.324
4242.33   2.325
4245.08   2.327
4247.83   2.323
4250.57   2.317
4253.32   2.305
4256.06   2.297
4258.81   2.295
4261.56   2.284
4264.30   2.266
4267.05   2.259
4269.79   2.255
4272.54   2.259
4275.29   2.264
4278.03   2.268
4280.78   2.273
4283.52   2.281
4286.27   2.279
4289.02   2.263
4291.76   2.250
4294.51   2.238
4297.25   2.223
4300.00   2.208
4302.75   2.214
4305.49   2.216
4308.24   2.196
4310.98   2.173
4313.73   2.145
4316.48   2.122
4319.22   2.104
4321.97   2.063
4324.71   2.014
4327.46   1.908
4330.21   1.789
4332.95   1.586
4335.70   1.392
4338.44   1.224
4341.19   1.182
4343.94   1.307
4346.68   1.477
4349.43   1.676
4352.17   1.810
4354.92   1.926
4357.67   1.987
4360.41   2.042
4363.16   2.076
4365.90   2.105
4368.65   2.120
4371.40   2.128
4374.14   2.130
4376.89   2.122
4379.63   2.110
4382.38   2.090
4385.13   2.069
4387.87   2.080
4390.62   2.091
4393.36   2.100
4396.11   2.108
4398.86   2.114
4401.60   2.109
4404.35   2.095
4407.09   2.075
4409.84   2.053
4412.59   2.040
4415.33   2.026
4418.08   2.011
4420.82   2.001
4423.57   2.003
4426.32   2.007
4429.06   2.013
4431.81   2.007
4434.55   1.995
4437.30   2.002
4440.05   2.014
4442.79   2.016
4445.54   2.019
4448.28   2.021
4451.03   2.021
4453.78   2.019
4456.52   2.014
4459.27   2.008
4462.01   2.002
4464.76   1.996
4467.51   1.971
4470.25   1.946
4473.00   1.941
4475.74   1.936
4478.49   1.932
4481.24   1.938
4483.98   1.957
4486.73   1.960
4489.47   1.952
4492.22   1.954
4494.97   1.958
4497.71   1.959
4500.46   1.959
4503.20   1.954
4505.95   1.945
4508.70   1.928
4511.44   1.915
4514.19   1.904
4516.93   1.905
4519.68   1.911
4522.43   1.918
4525.17   1.924
4527.92   1.918
4530.66   1.913
4533.41   1.910
4536.16   1.904
4538.90   1.894
4541.65   1.888
4544.39   1.886
4547.14   1.877
4549.89   1.866
4552.63   1.855
4555.38   1.847
4558.12   1.852
4560.87   1.855
4563.62   1.856
4566.36   1.860
4569.11   1.865
4571.85   1.872
4574.60   1.881
4577.35   1.871
4580.09   1.857
4582.84   1.828
4585.58   1.807
4588.33   1.814
4591.08   1.821
4593.82   1.827
4596.57   1.831
4599.31   1.833
4602.06   1.823
4604.81   1.810
4607.55   1.813
4610.30   1.816
4613.04   1.799
4615.79   1.782
4618.54   1.765
4621.28   1.756
4624.03   1.754
4626.77   1.757
4629.52   1.762
4632.27   1.758
4635.01   1.753
4637.76   1.749
4640.50   1.748
4643.25   1.757
4646.00   1.764
4648.74   1.766
4651.49   1.766
4654.23   1.762
4656.98   1.756
4659.73   1.749
4662.47   1.741
4665.22   1.734
4667.96   1.732
4670.71   1.734
4673.46   1.746
4676.20   1.757
4678.95   1.767
4681.69   1.756
4684.44   1.733
4687.19   1.723
4689.93   1.718
4692.68   1.717
4695.42   1.714
4698.17   1.704
4700.92   1.700
4703.66   1.707
4706.41   1.707
4709.15   1.699
4711.90   1.693
4714.65   1.687
4717.39   1.682
4720.14   1.677
4722.88   1.685
4725.63   1.688
4728.38   1.676
4731.12   1.672
4733.87   1.677
4736.61   1.682
4739.36   1.686
4742.11   1.679
4744.85   1.667
4747.60   1.654
4750.34   1.642
4753.09   1.646
4755.84   1.644
4758.58   1.629
4761.33   1.619
4764.07   1.614
4766.82   1.610
4769.57   1.606
4772.31   1.590
4775.06   1.572
4777.80   1.566
4780.55   1.563
4783.30   1.577
4786.04   1.590
4788.79   1.604
4791.53   1.608
4794.28   1.604
4797.03   1.592
4799.77   1.577
4802.52   1.567
4805.26   1.560
4808.01   1.564
4810.76   1.566
4813.50   1.566
4816.25   1.565
4818.99   1.562
4821.74   1.556
4824.49   1.548
4827.23   1.549
4829.98   1.553
4832.72   1.539
4835.47   1.523
4838.22   1.497
4840.96   1.463
4843.71   1.415
4846.45   1.357
4849.20   1.293
4851.95   1.199
4854.69   1.094
4857.44   0.9809
4860.18   0.8770
4862.93   0.9145
4865.68   0.9743
4868.42   1.102
4871.17   1.210
4873.91   1.292
4876.66   1.352
4879.41   1.397
4882.15   1.432
4884.90   1.464
4887.64   1.491
4890.39   1.513
4893.14   1.514
4895.88   1.506
4898.63   1.481
4901.37   1.469
4904.12   1.469
4906.87   1.474
4909.61   1.482
4912.36   1.479
4915.10   1.475
4917.85   1.470
4920.60   1.465
4923.34   1.458
4926.09   1.461
4928.83   1.481
4931.58   1.491
4934.33   1.495
4937.07   1.493
4939.82   1.488
4942.56   1.485
4945.31   1.481
4948.06   1.468
4950.80   1.456
4953.55   1.444
4956.29   1.444
4959.04   1.457
4961.79   1.461
4964.53   1.459
4967.28   1.455
4970.02   1.451
4972.77   1.449
4975.52   1.446
4978.26   1.442
4981.01   1.435
4983.75   1.425
4986.50   1.420
4989.25   1.420
4991.99   1.422
4994.74   1.426
4997.48   1.414
5000.23   1.401
5002.98   1.390
5005.72   1.380
5008.47   1.374
5011.21   1.370
5013.96   1.370
5016.71   1.359
5019.45   1.343
5022.20   1.344
5024.94   1.349
5027.69   1.349
5030.44   1.346
5033.18   1.337
5035.93   1.329
5038.67   1.325
5041.42   1.324
5044.17   1.326
5046.91   1.327
5049.66   1.328
5052.40   1.322
5055.15   1.316
5057.90   1.324
5060.64   1.331
5063.39   1.337
5066.13   1.337
5068.88   1.327
5071.63   1.323
5074.37   1.324
5077.12   1.331
5079.86   1.341
5082.61   1.337
5085.36   1.334
5088.10   1.329
5090.85   1.324
5093.59   1.319
5096.34   1.314
5099.09   1.310
5101.83   1.310
5104.58   1.312
5107.32   1.312
5110.07   1.312
5112.82   1.307
5115.56   1.301
5118.31   1.291
5121.05   1.283
5123.80   1.280
5126.55   1.274
5129.29   1.265
5132.04   1.264
5134.78   1.265
5137.53   1.264
5140.28   1.264
5143.02   1.266
5145.77   1.263
5148.51   1.246
5151.26   1.232
5154.01   1.224
5156.75   1.229
5159.50   1.242
5162.24   1.241
5164.99   1.238
5167.74   1.226
5170.48   1.217
5173.23   1.221
5175.97   1.225
5178.72   1.227
5181.47   1.222
5184.21   1.212
5186.96   1.207
5189.70   1.202
5192.45   1.205
5195.20   1.208
5197.94   1.207
5200.69   1.207
5203.43   1.209
5206.18   1.206
5208.93   1.197
5211.67   1.190
5214.42   1.185
5217.16   1.189
5219.91   1.195
5222.66   1.188
5225.40   1.180
5228.15   1.173
5230.89   1.168
5233.64   1.169
5236.39   1.174
5239.13   1.181
5241.88   1.188
5244.62   1.195
5247.37   1.190
5250.12   1.184
5252.86   1.179
5255.61   1.173
5258.35   1.168
5261.10   1.161
5263.85   1.150
5266.59   1.144
5269.34   1.140
5272.08   1.141
5274.83   1.143
5277.58   1.149
5280.32   1.154
5283.07   1.148
5285.81   1.143
5288.56   1.141
5291.31   1.139
5294.05   1.136
5296.80   1.133
5299.54   1.131
5302.29   1.132
5305.04   1.133
5307.78   1.131
5310.53   1.127
5313.27   1.119
5316.02   1.114
5318.77   1.113
5321.51   1.118
5324.26   1.127
5327.00   1.125
5329.75   1.120
5332.50   1.119
5335.24   1.119
5337.99   1.114
5340.73   1.111
5343.48   1.111
5346.23   1.113
5348.97   1.115
5351.72   1.113
5354.46   1.109
5357.21   1.104
5359.96   1.098
5362.70   1.099
5365.45   1.099
5368.19   1.093
5370.94   1.089
5373.69   1.090
5376.43   1.092
5379.18   1.096
5381.92   1.095
5384.67   1.092
5387.42   1.090
5390.16   1.086
5392.91   1.081
5395.65   1.076
5398.40   1.073
5402.76   1.076
5407.64   1.084
5412.52   1.088
5417.40   1.088
5422.29   1.084
5427.17   1.070
5432.05   1.057
5436.93   1.054
5441.81   1.048
5446.70   1.041
5451.58   1.042
5456.46   1.041
5461.34   1.035
5466.22   1.022
5471.11   1.018
5475.99   1.023
5480.87   1.020
5485.75   1.026
5490.63   1.017
5495.52   1.009
5500.40   1.000
5505.28   0.9957
5510.16   1.001
5515.04   1.015
5519.93   1.010
5524.81   1.007
5529.69   0.9982
5534.57   0.9987
5539.45   0.9971
5544.34   0.9832
5549.22   0.9797
5554.10   0.9852
5558.98   0.9834
5563.86   0.9738
5568.75   0.9658
5573.63   0.9652
5578.51   0.9610
5583.39   0.9633
5588.27   0.9688
5593.16   0.9659
5598.04   0.9598
5602.92   0.9503
5607.80   0.9456
5612.68   0.9457
5617.57   0.9374
5622.45   0.9268
5627.33   0.9282
5632.21   0.9305
5637.09   0.9224
5641.98   0.9165
5646.86   0.9127
5651.74   0.9122
5656.62   0.9226
5661.50   0.9187
5666.39   0.9105
5671.27   0.9045
5676.15   0.9027
5681.03   0.9032
5685.91   0.9043
5690.80   0.8958
5695.68   0.8883
5700.56   0.8867
5705.44   0.8781
5710.32   0.8738
5715.21   0.8750
5720.09   0.8812
5724.97   0.8793
5729.85   0.8787
5734.73   0.8604
5739.62   0.8582
5744.50   0.8640
5749.38   0.8653
5754.26   0.8589
5759.14   0.8614
5764.03   0.8594
5768.91   0.8555
5773.79   0.8470
5778.67   0.8349
5783.55   0.8349
5788.44   0.8332
5793.32   0.8266
5798.20   0.8272
5803.08   0.8274
5807.96   0.8270
5812.85   0.8290
5817.73   0.8322
5822.61   0.8307
5827.49   0.8246
5832.37   0.8242
5837.26   0.8251
5842.14   0.8191
5847.02   0.8147
5851.90   0.8122
5856.78   0.8126
5861.67   0.8219
5866.55   0.8194
5871.43   0.8070
5876.31   0.8040
5881.19   0.7998
5886.08   0.7672
5890.96   0.7349
5895.84   0.7491
5900.72   0.7779
5905.60   0.7927
5910.49   0.7958
5915.37   0.7977
5920.25   0.7887
5925.13   0.7873
5930.01   0.7882
5934.90   0.7802
5939.78   0.7766
5944.66   0.7694
5949.54   0.7627
5954.42   0.7563
5959.31   0.7549
5964.19   0.7639
5969.07   0.7650
5973.95   0.7485
5978.83   0.7395
5983.72   0.7485
5988.60   0.7543
5993.48   0.7536
5998.36   0.7564
6003.24   0.7548
6008.13   0.7525
6013.01   0.7514
6017.89   0.7497
6022.77   0.7490
6027.65   0.7504
6032.54   0.7501
6037.42   0.7437
6042.30   0.7333
6047.18   0.7288
6052.06   0.7324
6056.95   0.7326
6061.83   0.7283
6066.71   0.7272
6071.59   0.7265
6076.47   0.7250
6081.36   0.7278
6086.24   0.7295
6091.12   0.7307
6096.00   0.7260
6100.88   0.7168
6105.77   0.7113
6110.65   0.7136
6115.53   0.7120
6120.41   0.7095
6125.29   0.7104
6130.18   0.7108
6135.06   0.7053
6139.94   0.7000
6144.82   0.6922
6149.70   0.6936
6154.59   0.6951
6159.47   0.6913
6164.35   0.6883
6169.23   0.6890
6174.11   0.6836
6179.00   0.6828
6183.88   0.6834
6188.76   0.6858
6193.64   0.6836
6198.52   0.6796
6203.41   0.6790
6208.29   0.6769
6213.17   0.6746
6218.05   0.6722
6222.93   0.6704
6227.82   0.6689
6232.70   0.6688
6237.58   0.6688
6242.46   0.6642
6247.34   0.6612
6252.23   0.6635
6257.11   0.6628
6261.99   0.6597
6266.87   0.6556
6271.75   0.6482
6276.64   0.6387
6281.52   0.6310
6286.40   0.6380
6291.28   0.6450
6296.16   0.6456
6301.05   0.6480
6305.93   0.6413
6310.81   0.6385
6315.69   0.6387
6320.57   0.6363
6325.46   0.6346
6330.34   0.6316
6335.22   0.6312
6340.10   0.6293
6344.98   0.6188
6349.87   0.6205
6354.75   0.6272
6359.63   0.6270
6364.51   0.6240
6369.39   0.6134
6374.28   0.6152
6379.16   0.6187
6384.04   0.6169
6388.92   0.6147
6393.80   0.6126
6398.69   0.6115
6403.57   0.6148
6408.45   0.6158
6413.33   0.6106
6418.21   0.6091
6423.10   0.6116
6427.98   0.6108
6432.86   0.6055
6437.74   0.6037
6442.62   0.6034
6447.51   0.5989
6452.39   0.5928
6457.27   0.5911
6462.15   0.5933
6467.03   0.5933
6471.92   0.5920
6476.80   0.5901
6481.68   0.5840
6486.56   0.5796
6491.44   0.5812
6496.33   0.5818
6501.21   0.5823
6506.09   0.5803
6510.97   0.5767
6515.85   0.5733
6520.74   0.5757
6525.62   0.5747
6530.50   0.5728
6535.38   0.5689
6540.26   0.5579
6545.15   0.5419
6550.03   0.5199
6554.91   0.4854
6559.79   0.4310
6564.67   0.4215
6569.56   0.4722
6574.44   0.5131
6579.32   0.5347
6584.20   0.5425
6589.08   0.5468
6593.97   0.5487
6598.85   0.5515
6603.73   0.5562
6608.61   0.5603
6613.49   0.5607
6618.38   0.5563
6623.26   0.5528
6628.14   0.5533
6633.02   0.5530
6637.90   0.5496
6642.79   0.5501
6647.67   0.5499
6652.55   0.5453
6657.43   0.5411
6662.31   0.5375
6667.20   0.5331
6672.08   0.5278
6676.96   0.5242
6681.84   0.5251
6686.72   0.5270
6691.61   0.5276
6696.49   0.5272
6701.37   0.5236
6706.25   0.5237
6711.13   0.5251
6716.02   0.5238
6720.90   0.5251
6725.78   0.5268
6730.66   0.5227
6735.54   0.5208
6740.43   0.5162
6745.31   0.5189
6750.19   0.5208
6755.07   0.5207
6759.95   0.5198
6764.84   0.5196
6769.72   0.5154
6774.60   0.5117
6779.48   0.5073
6784.36   0.5079
6789.25   0.5095
6794.13   0.5095
6799.01   0.5070
6803.89   0.5050
6808.77   0.5002
6813.66   0.4981
6818.54   0.4971
6823.42   0.4996
6828.30   0.5008
6833.18   0.5023
6838.07   0.5040
6842.95   0.5038
6847.83   0.5026
6852.71   0.5014
6857.59   0.5002
6862.48   0.4990
6867.36   0.4977
6872.24   0.4965
6877.12   0.4954
6882.00   0.4942
6886.89   0.4930
6891.77   0.4919
6896.65   0.4908
6901.53   0.4898
6906.41   0.4887
6911.30   0.4877
6916.18   0.4866
6921.06   0.4856
6925.94   0.4846
6930.82   0.4836
6935.71   0.4825
6940.59   0.4814
6945.47   0.4804
6950.35   0.4792
6955.23   0.4782
6960.12   0.4770
6965.00   0.4759
6969.88   0.4746
6974.76   0.4710
6979.64   0.4702
6984.53   0.4648
6989.41   0.4615
6994.29   0.4651
6999.17   0.4645
7004.05   0.4593
7008.94   0.4599
7013.82   0.4568
7018.70   0.4565
7023.58   0.4547
7028.46   0.4552
7033.35   0.4578
7038.23   0.4548
7043.11   0.4519
7047.99   0.4520
7052.87   0.4532
7057.76   0.4513
7062.64   0.4492
7067.52   0.4507
7072.40   0.4489
7077.28   0.4464
7082.17   0.4500
7087.05   0.4515
7091.93   0.4476
7096.81   0.4427
7101.69   0.4402
7106.58   0.4406
7111.46   0.4452
7116.34   0.4459
7121.22   0.4443
7126.10   0.4457
7130.99   0.4458
7135.87   0.4445
7140.75   0.4437
7145.63   0.4420
7150.51   0.4411
7155.40   0.4411
7160.28   0.4376
7165.16   0.4310
7170.04   0.4231
7174.92   0.4198
7179.81   0.4156
7184.69   0.4129
7189.57   0.4144
7194.45   0.4142
7199.33   0.4110
7204.22   0.4137
7209.10   0.4225
7213.98   0.4302
7218.86   0.4316
7223.74   0.4290
7228.63   0.4226
7233.51   0.4146
7238.39   0.4156
7243.27   0.4196
7248.15   0.4194
7253.04   0.4122
7257.92   0.4076
7262.80   0.4046
7267.68   0.4052
7272.56   0.4048
7277.45   0.4052
7282.33   0.4047
7287.21   0.3989
7292.09   0.3998
7296.97   0.4032
7301.86   0.4017
7306.74   0.4013
7311.62   0.4015
7316.50   0.4000
7321.38   0.4002
7326.27   0.3997
7331.15   0.4000
7336.03   0.3999
7340.91   0.3959
7345.79   0.3945
7350.68   0.3969
7355.56   0.3970
7360.44   0.3934
7365.32   0.3910
7370.20   0.3934
7375.09   0.3945
7379.97   0.3927
7384.85   0.3894
7389.73   0.3857
7394.61   0.3795
7399.50   0.3794
7404.38   0.3814
7409.26   0.3841
7414.14   0.3860
7419.02   0.3846
7423.91   0.3897
7428.79   0.3917
7433.67   0.3903
7438.55   0.3888
7443.43   0.3883
7448.32   0.3886
7453.20   0.3875
7458.08   0.3861
7462.96   0.3862
7467.84   0.3855
7472.73   0.3838
7477.61   0.3831
7482.49   0.3826
7487.37   0.3821
7492.25   0.3817
7497.14   0.3810
7502.02   0.3801
7506.90   0.3791
7511.78   0.3790
7516.66   0.3787
7521.55   0.3768
7526.43   0.3756
7531.31   0.3757
7536.19   0.3749
7541.07   0.3733
7545.96   0.3719
7550.84   0.3715
7555.72   0.3708
7560.60   0.3701
7565.48   0.3694
7570.37   0.3688
7575.25   0.3681
7580.13   0.3674
7585.01   0.3667
7589.89   0.3660
7594.78   0.3653
7599.66   0.3646
7604.54   0.3639
7609.42   0.3632
7614.30   0.3624
7619.19   0.3616
7624.07   0.3609
7628.95   0.3601
7633.83   0.3594
7638.71   0.3586
7643.60   0.3578
7648.48   0.3570
7653.36   0.3563
7658.24   0.3555
7663.12   0.3547
7668.01   0.3539
7672.89   0.3532
7677.77   0.3524
7682.65   0.3516
7687.53   0.3508
7692.42   0.3501
7697.30   0.3493
7702.18   0.3486
7707.06   0.3481
7711.94   0.3478
7716.83   0.3474
7721.71   0.3469
7726.59   0.3462
7731.47   0.3452
7736.35   0.3439
7741.24   0.3439
7746.12   0.3435
7751.00   0.3424
7755.88   0.3412
7760.76   0.3403
7765.65   0.3358
7770.53   0.3292
7775.41   0.3283
7780.29   0.3327
7785.17   0.3356
7790.06   0.3369
7794.94   0.3364
7799.82   0.3368
7804.70   0.3348
7809.58   0.3343
7814.47   0.3347
7819.35   0.3318
7824.23   0.3312
7829.11   0.3297
7833.99   0.3294
7838.88   0.3290
7843.76   0.3280
7848.64   0.3272
7853.52   0.3264
7858.40   0.3269
7863.29   0.3264
7868.17   0.3252
7873.05   0.3235
7877.93   0.3218
7882.81   0.3215
7887.70   0.3211
7892.58   0.3192
7897.46   0.3174
7902.34   0.3182
7907.22   0.3202
7912.11   0.3202
7916.99   0.3180
7921.87   0.3172
7926.75   0.3178
7931.63   0.3172
7936.52   0.3161
7941.40   0.3141
7946.28   0.3127
7951.16   0.3125
7956.04   0.3126
7960.93   0.3106
7965.81   0.3111
7970.69   0.3107
7975.57   0.3112
7980.45   0.3092
7985.34   0.3107
7990.22   0.3102
7995.10   0.3083
7999.98   0.3070
8004.86   0.3068
8009.75   0.3063
8014.63   0.3044
8019.51   0.3039
8024.39   0.3043
8029.27   0.3039
8034.16   0.3031
8039.04   0.3029
8043.92   0.3034
8048.80   0.3010
8053.68   0.3013
8058.57   0.3008
8063.45   0.2991
8068.33   0.2997
8073.21   0.2996
8078.09   0.2989
8082.98   0.2985
8087.86   0.2976
8092.74   0.2976
8097.62   0.2971
8102.50   0.2970
8107.39   0.2977
8112.27   0.2973
8117.15   0.2961
8122.03   0.2943
8126.91   0.2940
8131.80   0.2933
8136.68   0.2924
8141.56   0.2920
8146.44   0.2904
8151.32   0.2880
8156.21   0.2863
8161.09   0.2843
8165.97   0.2840
8170.85   0.2856
8175.73   0.2848
8180.62   0.2847
8185.50   0.2832
8190.38   0.2840
8195.26   0.2842
8200.14   0.2854
8205.03   0.2868
8209.91   0.2869
8214.79   0.2852
8219.67   0.2804
8224.55   0.2762
8229.44   0.2725
8234.32   0.2783
8239.20   0.2802
8244.08   0.2800
8248.96   0.2816
8253.85   0.2793
8258.73   0.2796
8263.61   0.2804
8268.49   0.2787
8273.37   0.2758
8278.26   0.2758
8283.14   0.2761
8288.02   0.2748
8292.90   0.2729
8297.78   0.2732
8302.67   0.2737
8307.55   0.2731
8312.43   0.2731
8317.31   0.2719
8322.19   0.2713
8327.08   0.2723
8331.96   0.2714
8336.84   0.2704
8341.72   0.2698
8346.60   0.2704
8351.49   0.2696
8356.37   0.2674
8361.25   0.2672
8366.13   0.2685
8371.01   0.2670
8375.90   0.2667
8380.78   0.2661
8385.66   0.2655
8390.54   0.2655
8395.42   0.2638
8400.31   0.2643
8405.19   0.2626
8410.07   0.2609
8414.95   0.2620
8419.83   0.2616
8424.72   0.2608
8429.60   0.2591
8434.48   0.2578
8439.36   0.2552
8444.24   0.2541
8449.13   0.2542
8454.01   0.2549
8458.89   0.2548
8463.77   0.2518
8468.65   0.2507
8473.54   0.2519
8478.42   0.2531
8483.30   0.2528
8488.18   0.2523
8493.06   0.2495
8497.95   0.2447
8502.83   0.2433
8507.71   0.2451
8512.59   0.2466
8517.47   0.2477
8522.36   0.2482
8527.24   0.2470
8532.12   0.2436
8537.00   0.2392
8541.88   0.2363
8546.77   0.2356
8551.65   0.2381
8556.53   0.2428
8561.41   0.2478
8566.29   0.2500
8571.18   0.2500
8576.06   0.2486
8580.94   0.2438
8585.82   0.2379
8590.70   0.2324
8595.59   0.2291
8600.47   0.2272
8605.35   0.2309
8610.23   0.2409
8615.11   0.2475
8620.00   0.2507
8624.88   0.2537
8629.76   0.2553
8634.64   0.2560
8639.52   0.2512
8644.41   0.2489
8649.29   0.2419
8654.17   0.2323
8659.05   0.2239
8663.93   0.2200
8668.82   0.2185
8673.70   0.2232
8678.58   0.2326
8683.46   0.2404
8688.34   0.2458
8693.23   0.2505
8698.11   0.2549
8702.99   0.2573
8707.87   0.2570
8712.75   0.2560
8717.64   0.2546
8722.52   0.2509
8727.40   0.2467
8732.28   0.2404
8737.16   0.2300
8742.05   0.2191
8746.93   0.2110
8751.81   0.2095
8756.69   0.2134
8761.57   0.2215
8766.46   0.2295
8771.34   0.2343
8776.22   0.2374
8781.10   0.2396
8785.98   0.2410
8790.87   0.2411
8795.75   0.2420
8800.63   0.2429
8805.51   0.2422
8810.39   0.2398
8815.28   0.2381
8820.16   0.2348
8825.04   0.2304
8829.92   0.2264
8834.80   0.2221
8839.69   0.2165
8844.57   0.2117
8849.45   0.2058
8854.33   0.1999
8859.21   0.1968
8864.10   0.1970
8868.98   0.2023
8873.86   0.2095
8878.74   0.2161
8883.62   0.2214
8888.51   0.2254
8893.39   0.2275
8898.27   0.2290
8903.15   0.2300
8908.03   0.2300
8912.92   0.2294
8917.80   0.2291
8922.68   0.2291
8927.56   0.2286
8932.44   0.2279
8937.33   0.2278
8942.21   0.2275
8947.09   0.2266
8951.97   0.2254
8956.85   0.2239
8961.74   0.2217
8966.62   0.2193
8971.50   0.2168
8976.38   0.2135
8981.26   0.2087
8986.15   0.2027
8991.03   0.1961
8995.91   0.1920
9000.79   0.1857
9005.67   0.1818
9010.56   0.1808
9015.44   0.1816
9020.32   0.1865
9025.20   0.1947
9030.08   0.2037
9034.97   0.2103
9039.85   0.2147
9044.73   0.2166
9049.61   0.2174
9054.49   0.2176
9059.38   0.2173
9064.26   0.2158
9069.14   0.2146
9074.02   0.2141
9078.90   0.2135
9083.79   0.2134
9088.67   0.2134
9093.55   0.2122
9098.43   0.2124
9103.31   0.2131
9108.20   0.2133
9113.08   0.2130
9117.96   0.2123
9122.84   0.2123
9127.72   0.2120
9132.61   0.2101
9137.49   0.2088
9142.37   0.2082
9147.25   0.2064
9152.13   0.2038
9157.02   0.2029
9161.90   0.2042
9166.78   0.2057
9171.66   0.2058
9176.54   0.2058
9181.43   0.2058
9186.31   0.2045
9191.19   0.2029
9196.07   0.1999
9200.95   0.1962
9205.84   0.1910
9210.72   0.1845
9215.60   0.1785
9220.48   0.1740
9225.36   0.1700
9230.25   0.1695
9235.13   0.1734
9240.01   0.1794
9244.89   0.1847
9249.77   0.1878
9254.66   0.1906
9259.54   0.1926
9264.42   0.1951
9269.30   0.1977
9274.18   0.1997
9279.07   0.2015
9283.95   0.2018
9288.83   0.2004
9293.71   0.1982
9298.59   0.1943
9303.48   0.1903
9308.36   0.1863
9313.24   0.1819
9318.12   0.1795
9323.00   0.1801
9327.89   0.1828
9332.77   0.1847
9337.65   0.1846
9342.53   0.1843
9347.41   0.1880
9352.30   0.1896
9357.18   0.1877
9362.06   0.1900
9366.94   0.1914
9371.82   0.1906
9376.71   0.1909
9381.59   0.1920
9386.47   0.1980
9391.35   0.2009
9396.23   0.2021
9401.12   0.1996
9406.00   0.1976
9410.88   0.1951
9415.76   0.1915
9420.64   0.1887
9425.53   0.1824
9430.41   0.1796
9435.29   0.1820
9440.17   0.1763
9445.05   0.1800
9449.94   0.1831
9454.82   0.1816
9459.70   0.1812
9464.58   0.1836
9469.46   0.1832
9474.35   0.1835
9479.23   0.1814
9484.11   0.1827
9488.99   0.1833
9493.87   0.1793
9498.76   0.1766
9503.64   0.1791
9508.52   0.1802
9513.40   0.1767
9518.28   0.1705
9523.17   0.1658
9528.05   0.1627
9532.93   0.1605
9537.81   0.1561
9542.69   0.1508
9547.58   0.1506
9552.46   0.1546
9557.34   0.1596
9562.22   0.1639
9567.10   0.1683
9571.99   0.1742
9576.87   0.1765
9581.75   0.1750
9586.63   0.1756
9591.51   0.1756
9596.40   0.1755
9601.28   0.1755
9606.16   0.1758
9611.04   0.1753
9615.92   0.1737
9620.81   0.1740
9625.69   0.1724
9630.57   0.1723
9635.45   0.1707
9640.33   0.1713
9645.22   0.1721
9650.10   0.1729
9654.98   0.1740
9659.86   0.1729
9664.74   0.1750
9669.63   0.1740
9674.51   0.1738
9679.39   0.1754
9684.27   0.1743
9689.15   0.1748
9694.04   0.1754
9698.92   0.1742
9703.80   0.1723
9708.68   0.1722
9713.56   0.1710
9718.45   0.1707
9723.33   0.1705
9728.21   0.1707
9733.09   0.1699
9737.97   0.1680
9742.86   0.1681
9747.74   0.1691
9752.62   0.1684
9757.50   0.1667
9762.38   0.1657
9767.27   0.1669
9772.15   0.1673
9777.03   0.1656
9781.91   0.1652
9786.79   0.1644
9791.68   0.1640
9796.56   0.1636
9801.44   0.1619
9806.32   0.1634
9811.20   0.1640
9816.09   0.1645
9820.97   0.1659
9825.85   0.1638
9830.73   0.1640
9835.61   0.1626
9840.50   0.1641
9845.38   0.1654
9850.26   0.1638
9855.14   0.1630
9860.02   0.1608
9864.91   0.1603
9869.79   0.1604
9874.67   0.1604
9879.55   0.1610
9884.43   0.1617
9889.32   0.1617
9894.20   0.1609
9899.08   0.1614
9903.96   0.1626
9908.84   0.1593
9913.73   0.1575
9918.61   0.1567
9923.49   0.1530
9928.37   0.1521
9933.25   0.1539
9938.14   0.1568
9943.02   0.1579
9947.90   0.1568
9952.78   0.1557
9957.66   0.1561
9962.55   0.1548
9967.43   0.1541
9972.31   0.1553
9977.19   0.1538
9982.07   0.1512
9986.96   0.1504
9991.84   0.1504
9996.72   0.1473
10001.6   0.1444
10006.5   0.1437
10011.4   0.1416
10016.2   0.1395
10021.1   0.1375
10026.0   0.1366
10030.9   0.1355
10035.8   0.1309
10040.7   0.1300
10045.5   0.1252
10050.4   0.1230
10055.3   0.1281
10060.2   0.1273
10065.1   0.1304
10070.0   0.1334
10074.8   0.1400
10079.7   0.1409
10084.6   0.1414
10089.5   0.1423
10094.4   0.1432
10099.2   0.1453
10104.1   0.1425
10109.0   0.1403
10113.9   0.1406
10118.8   0.1405
10123.7   0.1418
10128.5   0.1442
10133.4   0.1427
10138.3   0.1424
10143.2   0.1467
10148.1   0.1466
10152.9   0.1405
10157.8   0.1437
10162.7   0.1458
10167.6   0.1446
10172.5   0.1434
10177.4   0.1409
10182.2   0.1407
10187.1   0.1404
10192.0   0.1405
10196.9   0.1371
10201.8   0.1314
10206.6   0.1322
10211.5   0.1333
10216.4   0.1344
10221.3   0.1352
10226.2   0.1356
10231.1   0.1357
10235.9   0.1358
10240.8   0.1360
10245.7   0.1366
