#Wavelength(Ang.A)  F_lambda(10^-12ergs/s/cm^2/A)
1150.58   5.796
1152.26   7.228
1153.94   9.029
1155.61   10.32
1157.29   10.06
1158.97   10.62
1160.64   10.79
1162.32   10.68
1163.99   10.93
1165.67   10.38
1167.35   10.74
1169.02   10.72
1170.70   9.886
1172.38   9.772
1174.05   10.09
1175.73   9.881
1177.41   10.38
1179.08   10.13
1180.76   10.28
1182.43   10.37
1184.11   10.13
1185.79   9.553
1187.46   8.976
1189.14   8.055
1190.82   7.564
1192.49   6.998
1194.17   6.513
1195.85   6.087
1197.52   5.558
1199.20   5.062
1200.87   4.457
1202.55   3.702
1204.23   2.920
1205.90   2.159
1207.58   1.436
1209.26   0.9592
1210.93   0.5740
1212.61   0.3838
1214.29   0.2746
1215.96   0.2199
1217.64   0.3072
1219.32   0.5340
1220.99   0.9400
1222.67   1.494
1224.34   2.231
1226.02   3.129
1227.70   4.057
1229.37   4.942
1231.05   6.103
1232.73   7.215
1234.40   8.221
1236.08   9.224
1237.76   9.855
1239.43   10.62
1241.11   11.34
1242.78   11.61
1244.46   11.73
1246.14   11.87
1247.81   11.97
1249.49   12.27
1251.17   12.17
1252.84   12.22
1254.52   12.09
1256.20   11.89
1257.87   11.67
1259.55   11.46
1261.22   11.14
1262.90   11.28
1264.58   11.32
1266.25   11.59
1267.93   11.97
1269.61   12.43
1271.28   12.42
1272.96   12.79
1274.64   13.07
1276.31   13.19
1277.99   13.49
1279.67   13.66
1281.34   13.94
1283.02   14.46
1284.69   14.53
1286.37   14.26
1288.05   14.46
1289.72   14.23
1291.40   14.10
1293.08   13.77
1294.75   13.31
1296.43   13.14
1298.11   12.67
1299.78   11.83
1301.46   11.31
1303.13   11.28
1304.81   10.98
1306.49   11.15
1308.16   11.45
1309.84   12.39
1311.52   13.55
1313.19   14.48
1314.87   14.65
1316.55   15.02
1318.22   15.26
1319.90   15.36
1321.57   15.24
1323.25   15.06
1324.93   14.67
1326.60   14.80
1328.28   14.55
1329.96   13.93
1331.63   13.40
1333.31   13.24
1334.99   13.19
1336.66   13.71
1338.34   13.72
1340.01   14.59
1341.69   15.18
1343.37   15.92
1345.04   16.00
1346.72   15.63
1348.40   15.43
1350.07   15.55
1351.75   15.56
1353.43   15.59
1355.10   15.15
1356.78   15.11
1358.46   15.46
1360.13   15.37
1361.81   15.19
1363.48   14.90
1365.16   14.86
1366.84   15.00
1368.51   15.18
1370.19   15.31
1371.87   15.50
1373.54   15.48
1375.22   15.47
1376.90   15.74
1378.57   15.74
1380.25   15.75
1381.92   15.36
1383.60   15.00
1385.28   15.01
1386.95   14.69
1388.63   14.26
1390.31   14.05
1391.98   13.99
1393.66   14.32
1395.34   14.55
1397.01   14.56
1398.69   14.53
1400.36   14.76
1402.04   14.91
1403.72   14.80
1405.39   14.83
1407.07   14.63
1408.75   14.79
1410.42   14.88
1412.10   14.59
1413.78   14.82
1415.45   14.83
1417.13   14.78
1418.81   14.86
1420.48   14.83
1422.16   15.06
1423.83   15.71
1425.51   15.86
1427.19   15.98
1428.86   15.77
1430.54   15.87
1432.22   16.06
1433.89   16.04
1435.57   15.68
1437.25   15.40
1438.92   15.12
1440.60   15.26
1442.27   15.29
1443.95   15.18
1445.63   15.24
1447.30   15.29
1448.98   15.25
1450.66   15.48
1452.33   15.52
1454.01   15.78
1455.69   15.52
1457.36   15.17
1459.04   14.98
1460.71   14.98
1462.39   14.87
1464.07   14.76
1465.74   14.53
1467.42   14.69
1469.10   14.65
1470.77   14.52
1472.45   14.46
1474.13   14.43
1475.80   14.51
1477.48   14.38
1479.16   14.00
1480.83   13.77
1482.51   13.84
1484.18   13.67
1485.86   13.87
1487.54   13.81
1489.21   13.76
1490.89   13.82
1492.57   14.21
1494.24   14.43
1495.92   14.67
1497.60   14.58
1499.27   14.56
1500.95   14.36
1502.62   14.57
1504.30   14.20
1505.98   13.59
1507.65   13.14
1509.33   12.70
1511.01   12.28
1512.68   12.13
1514.36   12.06
1516.04   12.29
1517.71   12.76
1519.39   12.96
1521.06   12.96
1522.74   13.16
1524.42   13.51
1526.09   13.47
1527.77   13.24
1529.45   13.00
1531.12   12.95
1532.80   13.08
1534.48   13.16
1536.15   12.88
1537.83   12.84
1539.50   12.98
1541.18   12.95
1542.86   12.91
1544.53   13.13
1546.21   13.11
1547.89   13.34
1549.56   13.23
1551.24   13.25
1552.92   13.22
1554.59   13.08
1556.27   12.81
1557.95   12.63
1559.62   12.45
1561.30   12.43
1562.97   12.17
1564.65   12.07
1566.33   12.12
1568.00   12.12
1569.68   12.12
1571.36   12.14
1573.03   12.08
1574.71   12.36
1576.39   12.58
1578.06   12.73
1579.74   13.06
1581.41   13.07
1583.09   12.98
1584.77   12.93
1586.44   12.84
1588.12   12.91
1589.80   12.87
1591.47   12.67
1593.15   12.62
1594.83   12.54
1596.50   12.42
1598.18   12.25
1599.85   12.00
1601.53   11.84
1603.21   11.69
1604.88   11.75
1606.56   11.62
1608.24   11.62
1609.91   11.70
1611.59   11.92
1613.27   12.10
1614.94   12.19
1616.62   12.12
1618.30   12.47
1619.97   12.67
1621.65   12.62
1623.32   12.37
1625.00   12.25
1626.68   12.27
1628.35   12.38
1630.03   12.29
1631.71   12.44
1633.38   12.35
1635.06   12.54
1636.74   12.45
1638.41   12.23
1640.09   12.23
1641.76   12.29
1643.44   12.13
1645.12   12.22
1646.79   12.06
1648.47   12.14
1650.15   12.12
1651.82   11.92
1653.50   11.57
1655.18   11.41
1656.85   11.42
1658.53   11.40
1660.20   11.46
1661.88   11.66
1663.56   11.82
1665.23   11.88
1666.91   11.97
1668.59   11.89
1670.26   11.93
1671.94   11.70
1673.62   11.43
1675.29   11.30
1676.97   11.45
1678.65   11.64
1680.32   11.84
1682.00   11.91
1683.67   12.02
1685.35   12.10
1687.03   12.04
1688.70   11.84
1690.38   11.44
1692.06   11.12
1693.73   11.11
1695.41   11.06
1697.09   11.11
1698.76   11.02
1700.44   10.93
1702.11   10.98
1703.79   11.04
1705.47   10.81
1707.14   10.68
1708.82   10.51
1710.50   10.58
1712.17   10.74
1713.85   10.66
1715.53   10.51
1717.20   10.38
1718.88   10.15
1720.55   10.11
1722.23   10.01
1723.91   9.827
1725.58   9.840
1727.26   9.955
1728.94   10.14
1730.61   10.45
1732.29   10.59
1733.97   10.66
1735.64   10.66
1737.32   10.60
1738.99   10.59
1740.67   10.55
1742.35   10.31
1744.02   10.18
1745.70   10.17
1747.38   10.22
1749.05   10.30
1750.73   10.38
1752.41   10.36
1754.08   10.53
1755.76   10.48
1757.44   10.42
1759.11   10.46
1760.79   10.44
1762.46   10.34
1764.14   10.27
1765.82   10.03
1767.49   9.952
1769.17   9.776
1770.85   9.673
1772.52   9.606
1774.20   9.568
1775.88   9.581
1777.55   9.821
1779.23   10.04
1780.90   10.10
1782.58   10.10
1784.26   10.11
1785.93   10.15
1787.61   10.14
1789.29   10.11
1790.96   10.09
1792.64   10.17
1794.32   10.26
1795.99   10.33
1797.67   10.30
1799.34   10.17
1801.02   10.02
1802.70   9.895
1804.37   9.875
1806.05   9.743
1807.73   9.611
1809.40   9.521
1811.08   9.551
1812.76   9.505
1814.43   9.382
1816.11   9.271
1817.79   9.241
1819.46   9.223
1821.14   9.158
1822.81   9.192
1824.49   9.283
1826.17   9.326
1827.84   9.338
1829.52   9.348
1831.20   9.275
1832.87   9.279
1834.55   9.168
1836.23   9.049
1837.90   8.986
1839.58   8.877
1841.25   8.745
1842.93   8.661
1844.61   8.500
1846.28   8.375
1847.96   8.223
1849.64   8.053
1851.31   8.011
1852.99   7.922
1854.67   7.936
1856.34   8.020
1858.02   8.012
1859.69   8.047
1861.37   8.142
1863.05   8.121
1864.72   8.127
1866.40   8.077
1868.08   8.022
1869.75   8.008
1871.43   7.970
1873.11   7.906
1874.78   7.871
1876.46   7.863
1878.14   7.834
1879.81   7.799
1881.49   7.809
1883.16   7.796
1884.84   7.770
1886.52   7.769
1888.19   7.768
1889.87   7.739
1891.55   7.703
1893.22   7.645
1894.90   7.587
1896.58   7.596
1898.25   7.611
1899.93   7.614
1901.60   7.619
1903.28   7.611
1904.96   7.598
1906.63   7.602
1908.31   7.583
1909.99   7.507
1911.66   7.436
1913.34   7.444
1915.02   7.465
1916.69   7.507
1918.37   7.526
1920.04   7.482
1921.72   7.443
1923.40   7.339
1925.07   7.173
1926.75   7.049
1928.43   6.957
1931.07   6.584
1933.73   6.866
1936.40   6.802
1939.06   6.803
1941.72   6.998
1944.38   7.151
1947.05   7.156
1949.71   6.962
1952.37   6.750
1955.04   6.801
1957.70   6.712
1960.36   6.742
1963.02   6.523
1965.69   6.270
1968.35   6.196
1971.01   5.972
1973.68   5.775
1976.34   5.424
1979.00   5.299
1981.66   4.993
1984.33   5.397
1986.99   5.284
1989.65   5.222
1992.31   5.125
1994.98   5.310
1997.64   5.217
2000.30   5.121
2002.97   4.999
2005.63   5.019
2008.29   5.148
2010.95   5.195
2013.62   5.407
2016.28   5.121
2018.94   5.193
2021.61   4.889
2024.27   4.894
2026.93   4.907
2029.59   4.872
2032.26   4.601
2034.92   4.745
2037.58   4.683
2040.25   4.901
2042.91   4.843
2045.57   4.657
2048.23   4.744
2050.90   4.652
2053.56   4.512
2056.22   4.362
2058.88   4.099
2061.55   3.948
2064.21   3.826
2066.87   3.714
2069.54   3.712
2072.20   3.808
2074.86   3.863
2077.52   3.818
2080.19   3.971
2082.85   3.930
2085.51   3.961
2088.18   3.956
2090.84   3.806
2093.50   3.739
2096.16   3.681
2098.83   3.594
2101.49   3.735
2104.15   3.624
2106.82   3.544
2109.48   3.608
2112.14   3.618
2114.80   3.575
2117.47   3.601
2120.13   3.445
2122.79   3.301
2125.45   3.420
2128.12   3.385
2130.78   3.256
2133.44   3.273
2136.11   3.161
2138.77   3.207
2141.43   3.310
2144.09   3.144
2146.76   3.104
2149.42   3.203
2152.08   3.142
2154.75   3.126
2157.41   3.020
2160.07   2.923
2162.73   2.903
2165.40   2.878
2168.06   2.812
2170.72   2.801
2173.39   2.848
2176.05   2.915
2178.71   2.892
2181.37   2.920
2184.04   2.877
2186.70   2.848
2189.36   2.897
2192.02   2.942
2194.69   2.890
2197.35   2.867
2200.01   2.794
2202.68   2.801
2205.34   2.871
2208.00   2.827
2210.66   2.674
2213.33   2.728
2215.99   2.807
2218.65   2.843
2221.32   2.928
2223.98   2.867
2226.64   2.868
2229.30   2.832
2231.97   2.898
2234.63   2.816
2237.29   2.825
2239.96   2.862
2242.62   2.845
2245.28   2.896
2247.94   3.039
2250.61   2.945
2253.27   2.963
2255.93   2.997
2258.59   2.947
2261.26   3.045
2263.92   3.019
2266.58   3.101
2269.25   3.092
2271.91   3.133
2274.57   3.176
2277.23   3.241
2279.90   3.355
2282.56   3.390
2285.22   3.347
2287.89   3.397
2290.55   3.478
2293.21   3.477
2295.87   3.453
2298.54   3.410
2301.20   3.433
2303.86   3.462
2306.53   3.555
2309.19   3.565
2311.85   3.557
2314.51   3.664
2317.18   3.590
2319.84   3.632
2322.50   3.604
2325.16   3.578
2327.83   3.612
2330.49   3.734
2333.15   3.615
2335.82   3.624
2338.48   3.507
2341.14   3.576
2343.80   3.658
2346.47   3.674
2349.13   3.591
2351.79   3.726
2354.46   3.735
2357.12   3.956
2359.78   3.955
2362.44   3.858
2365.11   3.944
2367.77   3.956
2370.43   3.898
2373.09   3.923
2375.76   3.902
2378.42   3.919
2381.08   3.960
2383.75   3.941
2386.41   3.969
2389.07   4.149
2391.73   4.285
2394.40   4.294
2397.06   4.283
2399.72   4.395
2402.39   4.571
2405.05   4.638
2407.71   4.469
2410.37   4.535
2413.04   4.694
2415.70   4.788
2418.36   4.875
2421.03   4.674
2423.69   4.793
2426.35   4.861
2429.01   4.941
2431.68   4.843
2434.34   4.871
2437.00   4.944
2439.67   4.792
2442.33   4.812
2444.99   4.730
2447.65   4.537
2450.32   4.232
2452.98   4.296
2455.64   4.183
2458.30   4.475
2460.97   4.298
2463.63   4.217
2466.29   4.455
2468.96   4.577
2471.62   4.225
2474.28   3.655
2476.94   3.429
2479.61   3.588
2482.27   3.753
2484.93   3.333
2487.60   3.434
2490.26   3.829
2492.92   4.132
2495.58   4.097
2498.25   3.368
2500.91   3.215
2503.57   3.837
2506.24   3.977
2508.90   3.812
2511.56   4.121
2514.22   4.186
2516.89   4.518
2519.55   4.681
2522.21   4.146
2524.87   4.016
2527.54   4.005
2530.20   3.752
2532.86   3.993
2535.53   4.758
2538.19   4.479
2540.85   4.479
2543.51   4.372
2546.18   4.237
2548.84   4.909
2551.50   4.580
2554.17   3.801
2556.83   3.538
2559.49   3.443
2562.15   3.300
2564.82   3.197
2567.48   2.498
2570.14   2.622
2572.80   2.359
2575.47   2.856
2578.13   2.496
2580.79   2.150
2583.46   2.263
2586.12   2.410
2588.78   2.361
2591.44   2.802
2594.11   2.253
2596.77   2.724
2599.43   3.149
2602.10   3.138
2604.76   2.979
2607.42   2.961
2610.08   3.441
2612.75   3.810
2615.41   3.357
2618.07   2.934
2620.74   2.768
2623.40   2.719
2626.06   2.581
2628.72   1.996
2631.39   1.633
2634.05   1.964
2636.71   2.294
2639.38   2.040
2642.04   2.022
2644.70   2.088
2647.36   2.067
2650.03   2.444
2652.69   2.109
2655.35   1.782
2658.01   2.039
2660.68   2.118
2663.34   2.071
2666.00   2.006
2668.67   1.955
2671.33   2.273
2673.99   2.687
2676.65   3.026
2679.32   2.910
2681.98   2.844
2684.64   2.862
2687.31   2.869
2689.97   2.972
2692.63   2.608
2695.29   1.987
2697.96   1.706
2700.62   1.772
2703.28   1.755
2705.94   1.772
2708.61   1.662
2711.27   1.976
2713.93   2.372
2716.60   2.653
2719.26   2.311
2721.92   2.679
2724.58   2.559
2727.25   2.563
2729.91   2.524
2732.57   2.448
2735.24   2.442
2737.90   2.704
2740.56   2.355
2743.22   2.171
2745.89   2.106
2748.55   2.065
2751.21   2.023
2753.88   2.015
2756.54   2.045
2759.20   2.002
2761.86   2.195
2764.53   1.962
2767.19   2.039
2769.85   2.039
2772.51   2.046
2775.18   2.043
2777.84   2.106
2780.50   2.142
2783.17   2.377
2785.83   2.062
2788.49   1.785
2791.15   1.716
2793.82   1.441
2796.48   1.364
2799.14   1.353
2801.81   1.387
2804.47   1.670
2807.13   1.937
2809.79   1.979
2812.46   2.240
2815.12   2.012
2817.78   2.173
2820.45   2.097
2823.11   2.040
2825.77   2.011
2828.43   1.949
2831.10   1.901
2833.76   2.121
2836.42   2.005
2839.08   1.820
2841.75   1.884
2844.41   1.924
2847.07   1.959
2849.74   1.918
2852.40   1.879
2855.06   1.786
2857.72   1.981
2860.39   1.943
2863.05   1.860
2865.71   1.865
2868.38   1.942
2871.04   1.970
2873.70   1.986
2876.36   1.982
2879.03   1.930
2881.69   1.956
2884.35   1.748
2887.02   1.679
2889.68   1.713
2892.34   1.702
2895.00   1.627
2897.67   1.584
2900.33   1.548
2902.99   1.709
2905.65   1.689
2908.32   1.615
2910.98   1.580
2913.64   1.697
2916.31   1.720
2918.97   1.753
2921.63   1.756
2924.29   1.763
2926.96   1.602
2929.62   1.583
2932.28   1.525
2934.95   1.447
2937.61   1.419
2940.27   1.397
2942.93   1.403
2945.60   1.563
2948.26   1.600
2950.92   1.590
2953.59   1.689
2956.25   1.728
2958.91   1.764
2961.57   1.772
2964.24   1.917
2966.90   1.982
2969.56   2.002
2972.22   2.023
2974.89   2.036
2977.55   2.051
2980.21   2.126
2982.88   2.080
2985.54   2.099
2988.20   2.609
2990.86   2.611
2993.53   2.720
2996.19   2.824
2998.85   2.809
3001.52   2.817
3004.18   2.841
3006.84   2.446
3009.50   2.924
3012.17   2.899
3014.83   2.926
3017.49   2.800
3020.16   2.901
3022.82   2.993
3025.48   3.076
3028.14   3.135
3030.81   3.524
3033.47   3.553
3036.13   3.796
3038.79   4.102
3041.46   4.016
3044.12   4.211
3046.78   3.474
3049.45   2.947
3052.11   3.198
3054.77   2.996
3057.43   2.697
3060.10   3.065
3062.76   2.892
3065.42   3.283
3068.09   3.560
3070.75   3.687
3073.41   4.340
3076.07   4.449
3078.74   4.530
3081.40   4.598
3084.06   4.613
3086.73   4.605
3089.39   4.336
3092.05   3.995
3094.71   3.992
3097.38   4.066
3100.04   4.363
3102.70   4.441
3105.36   4.505
3108.03   4.563
3110.69   4.659
3113.35   4.652
3116.02   4.479
3118.68   4.230
3121.34   4.483
3124.00   4.616
3126.67   4.845
3129.33   5.017
3131.99   5.096
3134.66   5.092
3137.32   5.123
3139.98   5.006
3142.64   5.036
3145.31   4.917
3147.97   4.871
3150.63   5.010
3153.30   5.022
3155.96   5.139
3158.62   5.199
3161.28   5.209
3163.95   5.125
3166.61   5.084
3169.27   5.004
3171.93   4.954
3174.60   4.930
3177.26   4.863
3179.92   4.784
3182.59   4.871
3185.25   4.843
3187.91   4.827
3190.57   4.868
3193.24   4.821
3195.90   4.788
3198.56   4.857
3201.23   4.881
3203.89   4.870
3206.55   4.859
3209.21   4.818
3211.88   4.839
3214.54   4.786
3217.20   4.695
3219.87   4.637
3222.53   4.622
3225.19   4.633
3227.85   4.666
3230.52   4.647
3233.18   4.697
3235.84   4.731
3238.50   4.701
3240.04   4.642
3242.79   4.672
3245.54   4.812
3248.28   4.507
3251.03   4.505
3253.77   4.648
3256.52   4.546
3259.27   4.849
3262.01   4.687
3264.76   4.313
3267.50   4.285
3270.25   4.567
3273.00   4.685
3275.74   4.709
3278.49   4.658
3281.23   4.752
3283.98   4.630
3286.73   4.574
3289.47   4.588
3292.22   4.724
3294.96   4.484
3297.71   4.493
3300.46   4.666
3303.20   4.557
3305.95   4.671
3308.69   4.681
3311.44   4.437
3314.19   4.553
3316.93   4.614
3319.68   4.598
3322.42   4.577
3325.17   4.531
3327.92   4.566
3330.66   4.580
3333.41   4.740
3336.15   4.708
3338.90   4.603
3341.65   4.528
3344.39   4.551
3347.14   4.559
3349.88   4.640
3352.63   4.514
3355.38   4.579
3358.12   4.524
3360.87   4.553
3363.61   4.644
3366.36   4.555
3369.11   4.555
3371.85   4.649
3374.60   4.497
3377.34   4.384
3380.09   4.400
3382.84   4.547
3385.58   4.825
3388.33   4.544
3391.07   4.417
3393.82   4.446
3396.57   4.560
3399.31   4.388
3402.06   4.433
3404.80   4.380
3407.55   4.566
3410.30   4.521
3413.04   4.399
3415.79   4.410
3418.53   4.551
3421.28   4.500
3424.03   4.388
3426.77   4.327
3429.52   4.386
3432.26   4.422
3435.01   4.324
3437.76   4.369
3440.50   4.289
3443.25   4.383
3445.99   4.374
3448.74   4.509
3451.49   4.320
3454.23   4.531
3456.98   4.489
3459.72   4.316
3462.47   4.373
3465.22   4.336
3467.96   4.275
3470.71   4.353
3473.45   4.565
3476.20   4.414
3478.95   4.460
3481.69   4.443
3484.44   4.413
3487.18   4.347
3489.93   4.312
3492.68   4.305
3495.42   4.326
3498.17   4.362
3500.91   4.286
3503.66   4.245
3506.41   4.231
3509.15   4.275
3511.90   4.496
3514.64   4.437
3517.39   4.417
3520.14   4.358
3522.88   4.411
3525.63   4.191
3528.37   4.238
3531.12   4.278
3533.87   4.300
3536.61   4.321
3539.36   4.390
3542.10   4.344
3544.85   4.312
3547.60   4.256
3550.34   4.300
3553.09   4.201
3555.83   4.167
3558.58   4.179
3561.33   4.076
3564.07   4.309
3566.82   4.272
3569.56   4.116
3572.31   4.216
3575.06   4.211
3577.80   4.190
3580.55   4.217
3583.29   4.257
3586.04   4.141
3588.79   4.151
3591.53   4.331
3594.28   4.242
3597.02   4.095
3599.77   4.195
3602.52   4.130
3605.26   4.132
3608.01   4.147
3610.75   3.999
3613.50   4.118
3616.25   4.065
3618.99   4.138
3621.74   4.201
3624.48   4.201
3627.23   4.046
3629.98   4.074
3632.72   4.120
3635.47   4.064
3638.21   4.075
3640.96   4.081
3643.71   4.161
3646.45   4.147
3649.20   4.101
3651.94   4.259
3654.69   4.164
3657.44   4.060
3660.18   4.078
3662.93   4.123
3665.67   4.151
3668.42   4.097
3671.17   4.108
3673.91   4.118
3676.66   4.112
3679.40   4.149
3682.15   4.133
3684.90   4.153
3687.64   4.060
3690.39   4.089
3693.13   4.041
3695.88   3.944
3698.63   4.066
3701.37   4.018
3704.12   4.054
3706.86   4.021
3709.61   4.029
3712.36   4.235
3715.10   4.230
3717.85   3.894
3720.59   3.759
3723.34   3.992
3726.09   4.329
3728.83   4.331
3731.58   4.049
3734.32   4.046
3737.07   4.507
3739.82   4.885
3742.56   4.864
3745.31   4.278
3748.05   3.894
3750.80   4.170
3753.55   4.869
3756.29   5.299
3759.04   5.495
3761.78   5.283
3764.53   4.790
3767.28   4.183
3770.02   3.919
3772.77   4.601
3775.51   5.350
3778.26   5.883
3781.01   6.118
3783.75   6.146
3786.50   5.971
3789.24   5.398
3791.99   4.679
3794.74   4.067
3797.48   4.016
3800.23   4.541
3802.97   5.288
3805.72   5.954
3808.47   6.274
3811.21   6.422
3813.96   6.450
3816.70   6.306
3819.45   6.059
3822.20   6.068
3824.94   5.840
3827.69   5.293
3830.43   4.542
3833.18   3.992
3835.93   4.183
3838.67   4.906
3841.42   5.626
3844.16   6.176
3846.91   6.571
3849.66   6.731
3852.40   6.726
3855.15   6.777
3857.89   6.810
3860.64   6.824
3863.39   6.818
3866.13   6.834
3868.88   6.616
3871.62   6.494
3874.37   6.425
3877.12   6.088
3879.86   5.569
3882.61   4.901
3885.35   4.199
3888.10   3.990
3890.85   4.402
3893.59   5.089
3896.34   5.762
3899.08   6.311
3901.83   6.578
3904.58   6.799
3907.32   6.831
3910.07   6.876
3912.81   6.913
3915.56   6.955
3918.31   7.011
3921.05   6.877
3923.80   6.752
3926.54   6.787
3929.29   6.823
3932.04   6.705
3934.78   6.775
3937.53   6.870
3940.27   6.865
3943.02   6.845
3945.77   6.835
3948.51   6.748
3951.26   6.598
3954.00   6.345
3956.75   6.071
3959.50   5.694
3962.24   5.045
3964.99   4.304
3967.73   3.838
3970.48   3.951
3973.23   4.571
3975.97   5.229
3978.72   5.678
3981.46   6.043
3984.21   6.253
3986.96   6.414
3989.70   6.464
3992.45   6.536
3995.19   6.588
3997.94   6.636
4000.69   6.548
4003.43   6.500
4006.18   6.506
4008.92   6.529
4011.67   6.641
4014.42   6.699
4017.16   6.608
4019.91   6.441
4022.65   6.165
4025.40   6.083
4028.15   6.227
4030.89   6.467
4033.64   6.574
4036.38   6.597
4039.13   6.595
4041.88   6.549
4044.62   6.546
4047.37   6.535
4050.11   6.570
4052.86   6.611
4055.61   6.551
4058.35   6.477
4061.10   6.451
4063.84   6.392
4066.59   6.375
4069.34   6.435
4072.08   6.366
4074.83   6.251
4077.57   6.200
4080.32   6.150
4083.07   6.052
4085.81   5.876
4088.56   5.580
4091.30   5.216
4094.05   4.711
4096.80   4.072
4099.54   3.674
4102.29   3.813
4105.03   4.321
4107.78   4.889
4110.53   5.388
4113.27   5.688
4116.02   5.848
4118.76   5.922
4121.51   5.972
4124.26   6.054
4127.00   6.104
4129.75   6.073
4132.49   6.095
4135.24   6.122
4137.99   6.061
4140.73   5.993
4143.48   5.963
4146.22   6.051
4148.97   6.145
4151.72   6.148
4154.46   6.188
4157.21   6.228
4159.95   6.208
4162.70   6.226
4165.45   6.203
4168.19   6.196
4170.94   6.198
4173.68   6.170
4176.43   6.167
4179.18   6.156
4181.92   6.117
4184.67   6.118
4187.41   6.091
4190.16   6.025
4192.91   5.985
4195.65   6.037
4198.40   6.101
4201.14   6.041
4203.89   5.979
4206.64   6.027
4209.38   6.095
4212.13   6.039
4214.87   6.001
4217.62   5.962
4220.37   5.942
4223.11   6.035
4225.86   6.019
4228.60   5.895
4231.35   5.907
4234.10   5.979
4236.84   6.005
4239.59   5.934
4242.33   5.907
4245.08   5.925
4247.83   5.905
4250.57   5.917
4253.32   5.940
4256.06   5.928
4258.81   5.846
4261.56   5.790
4264.30   5.664
4267.05   5.706
4269.79   5.822
4272.54   5.765
4275.29   5.773
4278.03   5.803
4280.78   5.772
4283.52   5.724
4286.27   5.680
4289.02   5.697
4291.76   5.738
4294.51   5.692
4297.25   5.692
4300.00   5.724
4302.75   5.681
4305.49   5.633
4308.24   5.597
4310.98   5.555
4313.73   5.548
4316.48   5.498
4319.22   5.386
4321.97   5.235
4324.71   5.164
4327.46   4.951
4330.21   4.594
4332.95   4.168
4335.70   3.669
4338.44   3.292
4341.19   3.373
4343.94   3.833
4346.68   4.299
4349.43   4.652
4352.17   4.983
4354.92   5.141
4357.67   5.186
4360.41   5.312
4363.16   5.370
4365.90   5.380
4368.65   5.380
4371.40   5.397
4374.14   5.399
4376.89   5.411
4379.63   5.423
4382.38   5.347
4385.13   5.210
4387.87   5.124
4390.62   5.228
4393.36   5.380
4396.11   5.467
4398.86   5.434
4401.60   5.412
4404.35   5.396
4407.09   5.392
4409.84   5.351
4412.59   5.307
4415.33   5.309
4418.08   5.312
4420.82   5.274
4423.57   5.174
4426.32   5.104
4429.06   5.129
4431.81   5.164
4434.55   5.162
4437.30   5.257
4440.05   5.267
4442.79   5.257
4445.54   5.190
4448.28   5.219
4451.03   5.271
4453.78   5.287
4456.52   5.251
4459.27   5.229
4462.01   5.237
4464.76   5.116
4467.51   4.898
4470.25   4.769
4473.00   4.879
4475.74   5.011
4478.49   5.035
4481.24   5.068
4483.98   5.111
4486.73   5.187
4489.47   5.177
4492.22   5.092
4494.97   5.153
4497.71   5.117
4500.46   5.123
4503.20   5.155
4505.95   5.148
4508.70   5.178
4511.44   5.139
4514.19   5.086
4516.93   5.124
4519.68   5.172
4522.43   5.180
4525.17   5.149
4527.92   5.079
4530.66   5.127
4533.41   5.101
4536.16   5.060
4538.90   5.009
4541.65   4.996
4544.39   5.105
4547.14   5.032
4549.89   5.003
4552.63   4.967
4555.38   5.011
4558.12   5.004
4560.87   4.955
4563.62   5.031
4566.36   4.984
4569.11   4.991
4571.85   5.013
4574.60   4.961
4577.35   4.962
4580.09   4.923
4582.84   4.900
4585.58   4.880
4588.33   4.919
4591.08   4.940
4593.82   4.942
4596.57   4.934
4599.31   4.933
4602.06   4.922
4604.81   4.912
4607.55   4.936
4610.30   4.926
4613.04   4.893
4615.79   4.825
4618.54   4.877
4621.28   4.920
4624.03   4.848
4626.77   4.779
4629.52   4.805
4632.27   4.881
4635.01   4.880
4637.76   4.857
4640.50   4.816
4643.25   4.745
4646.00   4.788
4648.74   4.794
4651.49   4.751
4654.23   4.745
4656.98   4.694
4659.73   4.777
4662.47   4.722
4665.22   4.714
4667.96   4.784
4670.71   4.750
4673.46   4.753
4676.20   4.754
4678.95   4.739
4681.69   4.757
4684.44   4.756
4687.19   4.744
4689.93   4.720
4692.68   4.733
4695.42   4.679
4698.17   4.653
4700.92   4.679
4703.66   4.684
4706.41   4.626
4709.15   4.627
4711.90   4.565
4714.65   4.516
4717.39   4.573
4720.14   4.556
4722.88   4.545
4725.63   4.555
4728.38   4.585
4731.12   4.565
4733.87   4.523
4736.61   4.546
4739.36   4.607
4742.11   4.568
4744.85   4.468
4747.60   4.491
4750.34   4.513
4753.09   4.441
4755.84   4.512
4758.58   4.510
4761.33   4.435
4764.07   4.400
4766.82   4.400
4769.57   4.410
4772.31   4.424
4775.06   4.410
4777.80   4.375
4780.55   4.474
4783.30   4.504
4786.04   4.491
4788.79   4.454
4791.53   4.459
4794.28   4.456
4797.03   4.373
4799.77   4.393
4802.52   4.438
4805.26   4.277
4808.01   4.332
4810.76   4.395
4813.50   4.334
4816.25   4.321
4818.99   4.285
4821.74   4.317
4824.49   4.321
4827.23   4.251
4829.98   4.261
4832.72   4.259
4835.47   4.239
4838.22   4.210
4840.96   4.117
4843.71   4.009
4846.45   3.884
4849.20   3.745
4851.95   3.454
4854.69   3.124
4857.44   2.802
4860.18   2.665
4862.93   2.797
4865.68   3.099
4868.42   3.361
4871.17   3.552
4873.91   3.747
4876.66   3.874
4879.41   3.938
4882.15   3.978
4884.90   4.079
4887.64   4.034
4890.39   4.080
4893.14   4.160
4895.88   4.121
4898.63   4.120
4901.37   4.197
4904.12   4.154
4906.87   4.139
4909.61   4.142
4912.36   4.102
4915.10   4.053
4917.85   4.021
4920.60   3.970
4923.34   3.978
4926.09   4.082
4928.83   4.133
4931.58   4.131
4934.33   4.138
4937.07   4.143
4939.82   4.163
4942.56   4.158
4945.31   4.114
4948.06   4.119
4950.80   4.169
4953.55   4.136
4956.29   4.060
4959.04   4.144
4961.79   4.136
4964.53   4.083
4967.28   4.099
4970.02   4.084
4972.77   4.050
4975.52   4.095
4978.26   4.048
4981.01   4.103
4983.75   4.118
4986.50   4.021
4989.25   4.083
4991.99   4.057
4994.74   4.037
4997.48   4.055
5000.23   4.031
5002.98   4.049
5005.72   4.012
5008.47   4.036
5011.21   4.017
5013.96   3.949
5016.71   3.890
5019.45   3.983
5022.20   3.998
5024.94   3.995
5027.69   4.006
5030.44   3.937
5033.18   3.980
5035.93   3.967
5038.67   3.941
5041.42   3.948
5044.17   3.923
5046.91   3.891
5049.66   3.896
5052.40   3.926
5055.15   3.878
5057.90   3.922
5060.64   3.903
5063.39   4.013
5066.13   3.950
5068.88   3.931
5071.63   3.958
5074.37   3.943
5077.12   3.934
5079.86   3.929
5082.61   3.866
5085.36   3.886
5088.10   3.925
5090.85   3.879
5093.59   3.897
5096.34   3.865
5099.09   3.849
5101.83   3.801
5104.58   3.837
5107.32   3.882
5110.07   3.881
5112.82   3.786
5115.56   3.825
5118.31   3.859
5121.05   3.887
5123.80   3.898
5126.55   3.839
5129.29   3.813
5132.04   3.841
5134.78   3.867
5137.53   3.863
5140.28   3.836
5143.02   3.829
5145.77   3.791
5148.51   3.734
5151.26   3.785
5154.01   3.773
5156.75   3.730
5159.50   3.725
5162.24   3.751
5164.99   3.762
5167.74   3.806
5170.48   3.806
5173.23   3.722
5175.97   3.733
5178.72   3.754
5181.47   3.762
5184.21   3.742
5186.96   3.742
5189.70   3.725
5192.45   3.738
5195.20   3.734
5197.94   3.667
5200.69   3.724
5203.43   3.750
5206.18   3.722
5208.93   3.720
5211.67   3.662
5214.42   3.617
5217.16   3.649
5219.91   3.655
5222.66   3.644
5225.40   3.632
5228.15   3.673
5230.89   3.723
5233.64   3.670
5236.39   3.662
5239.13   3.710
5241.88   3.678
5244.62   3.657
5247.37   3.657
5250.12   3.630
5252.86   3.636
5255.61   3.635
5258.35   3.680
5261.10   3.662
5263.85   3.645
5266.59   3.669
5269.34   3.598
5272.08   3.599
5274.83   3.604
5277.58   3.638
5280.32   3.679
5283.07   3.687
5285.81   3.619
5288.56   3.566
5291.31   3.581
5294.05   3.615
5296.80   3.623
5299.54   3.608
5302.29   3.528
5305.04   3.598
5307.78   3.582
5310.53   3.544
5313.27   3.523
5316.02   3.533
5318.77   3.527
5321.51   3.527
5324.26   3.511
5327.00   3.490
5329.75   3.512
5332.50   3.534
5335.24   3.565
5337.99   3.547
5340.73   3.477
5343.48   3.474
5346.23   3.536
5348.97   3.534
5351.72   3.494
5354.46   3.430
5357.21   3.463
5359.96   3.470
5362.70   3.445
5365.45   3.447
5368.19   3.496
5370.94   3.544
5373.69   3.517
5376.43   3.470
5379.18   3.473
5381.92   3.470
5384.67   3.461
5387.42   3.464
5390.16   3.442
5392.91   3.451
5395.65   3.487
5398.40   3.463
5402.76   3.358
5407.64   3.322
5412.52   3.288
5417.40   3.349
5422.29   3.405
5427.17   3.334
5432.05   3.360
5436.93   3.317
5441.81   3.283
5446.70   3.289
5451.58   3.334
5456.46   3.291
5461.34   3.208
5466.22   3.370
5471.11   3.299
5475.99   3.288
5480.87   3.295
5485.75   3.271
5490.63   3.351
5495.52   3.270
5500.40   3.286
5505.28   3.311
5510.16   3.256
5515.04   3.295
5519.93   3.306
5524.81   3.259
5529.69   3.181
5534.57   3.151
5539.45   3.268
5544.34   3.258
5549.22   3.340
5554.10   3.155
5558.98   3.210
5563.86   3.263
5568.75   3.233
5573.63   3.218
5578.51   3.180
5583.39   3.231
5588.27   3.105
5593.16   3.207
5598.04   3.196
5602.92   3.122
5607.80   3.097
5612.68   3.131
5617.57   3.216
5622.45   3.140
5627.33   3.063
5632.21   3.101
5637.09   3.133
5641.98   3.100
5646.86   3.074
5651.74   3.135
5656.62   3.104
5661.50   3.039
5666.39   3.094
5671.27   2.997
5676.15   3.066
5681.03   3.043
5685.91   3.081
5690.80   2.972
5695.68   3.003
5700.56   2.969
5705.44   2.978
5710.32   2.969
5715.21   2.990
5720.09   3.039
5724.97   3.024
5729.85   2.939
5734.73   3.048
5739.62   2.950
5744.50   2.957
5749.38   2.935
5754.26   2.875
5759.14   2.927
5764.03   2.961
5768.91   2.940
5773.79   2.894
5778.67   2.828
5783.55   2.852
5788.44   2.914
5793.32   2.793
5798.20   2.919
5803.08   2.789
5807.96   2.880
5812.85   2.906
5817.73   2.913
5822.61   2.829
5827.49   2.765
5832.37   2.873
5837.26   2.803
5842.14   2.861
5847.02   2.775
5851.90   2.807
5856.78   2.765
5861.67   2.797
5866.55   2.740
5871.43   2.675
5876.31   2.729
5881.19   2.770
5886.08   2.697
5890.96   2.710
5895.84   2.757
5900.72   2.716
5905.60   2.725
5910.49   2.701
5915.37   2.715
5920.25   2.659
5925.13   2.720
5930.01   2.750
5934.90   2.733
5939.78   2.683
5944.66   2.699
5949.54   2.711
5954.42   2.683
5959.31   2.680
5964.19   2.663
5969.07   2.619
5973.95   2.611
5978.83   2.678
5983.72   2.672
5988.60   2.671
5993.48   2.630
5998.36   2.573
6003.24   2.591
6008.13   2.578
6013.01   2.602
6017.89   2.649
6022.77   2.592
6027.65   2.612
6032.54   2.591
6037.42   2.662
6042.30   2.581
6047.18   2.581
6052.06   2.564
6056.95   2.562
6061.83   2.569
6066.71   2.558
6071.59   2.522
6076.47   2.534
6081.36   2.528
6086.24   2.541
6091.12   2.519
6096.00   2.516
6100.88   2.560
6105.77   2.541
6110.65   2.493
6115.53   2.475
6120.41   2.449
6125.29   2.511
6130.18   2.516
6135.06   2.484
6139.94   2.476
6144.82   2.434
6149.70   2.430
6154.59   2.426
6159.47   2.406
6164.35   2.411
6169.23   2.437
6174.11   2.385
6179.00   2.360
6183.88   2.432
6188.76   2.413
6193.64   2.386
6198.52   2.397
6203.41   2.341
6208.29   2.417
6213.17   2.379
6218.05   2.357
6222.93   2.387
6227.82   2.383
6232.70   2.358
6237.58   2.347
6242.46   2.379
6247.34   2.337
6252.23   2.402
6257.11   2.332
6261.99   2.265
6266.87   2.344
6271.75   2.274
6276.64   2.289
6281.52   2.269
6286.40   2.318
6291.28   2.366
6296.16   2.342
6301.05   2.339
6305.93   2.324
6310.81   2.270
6315.69   2.242
6320.57   2.266
6325.46   2.263
6330.34   2.247
6335.22   2.223
6340.10   2.235
6344.98   2.222
6349.87   2.258
6354.75   2.282
6359.63   2.227
6364.51   2.218
6369.39   2.192
6374.28   2.190
6379.16   2.187
6384.04   2.217
6388.92   2.211
6393.80   2.218
6398.69   2.191
6403.57   2.238
6408.45   2.208
6413.33   2.174
6418.21   2.173
6423.10   2.183
6427.98   2.177
6432.86   2.185
6437.74   2.078
6442.62   2.108
6447.51   2.165
6452.39   2.166
6457.27   2.115
6462.15   2.126
6467.03   2.139
6471.92   2.117
6476.80   2.114
6481.68   2.123
6486.56   2.130
6491.44   2.134
6496.33   2.139
6501.21   2.097
6506.09   2.096
6510.97   2.094
6515.85   2.073
6520.74   2.046
6525.62   2.043
6530.50   2.026
6535.38   2.005
6540.26   1.958
6545.15   1.901
6550.03   1.787
6554.91   1.677
6559.79   1.583
6564.67   1.667
6569.56   1.794
6574.44   1.877
6579.32   1.944
6584.20   1.988
6589.08   1.973
6593.97   2.001
6598.85   2.010
6603.73   1.999
6608.61   1.984
6613.49   1.985
6618.38   1.996
6623.26   2.010
6628.14   1.991
6633.02   1.992
6637.90   2.020
6642.79   1.975
6647.67   1.989
6652.55   1.979
6657.43   2.005
6662.31   1.983
6667.20   1.940
6672.08   1.929
6676.96   1.919
6681.84   1.935
6686.72   1.956
6691.61   1.956
6696.49   1.965
6701.37   1.936
6706.25   1.959
6711.13   1.934
6716.02   1.906
6720.90   1.874
6725.78   1.886
6730.66   1.865
6735.54   1.900
6740.43   1.873
6745.31   1.928
6750.19   1.905
6755.07   1.918
6759.95   1.943
6764.84   1.918
6769.72   1.845
6774.60   1.887
6779.48   1.893
6784.36   1.903
6789.25   1.850
6794.13   1.868
6799.01   1.871
6803.89   1.866
6808.77   1.863
6813.66   1.835
6818.54   1.902
6823.42   1.864
6828.30   1.831
6833.18   1.792
6838.07   1.827
6842.95   1.850
6847.83   1.786
6852.71   1.788
6857.59   1.801
6862.48   1.821
6867.36   1.793
6872.24   1.817
6877.12   1.808
6882.00   1.762
6886.89   1.762
6891.77   1.768
6896.65   1.777
6901.53   1.776
6906.41   1.788
6911.30   1.747
6916.18   1.771
6921.06   1.771
6925.94   1.808
6930.82   1.773
6935.71   1.775
6940.59   1.768
6945.47   1.777
6950.35   1.777
6955.23   1.755
6960.12   1.766
6965.00   1.755
6969.88   1.730
6974.76   1.751
6979.64   1.719
6984.53   1.709
6989.41   1.692
6994.29   1.720
6999.17   1.724
7004.05   1.700
7008.94   1.706
7013.82   1.702
7018.70   1.683
7023.58   1.707
7028.46   1.707
7033.35   1.721
7038.23   1.717
7043.11   1.718
7047.99   1.683
7052.87   1.707
7057.76   1.686
7062.64   1.643
7067.52   1.654
7072.40   1.687
7077.28   1.708
7082.17   1.646
7087.05   1.643
7091.93   1.647
7096.81   1.652
7101.69   1.629
7106.58   1.668
7111.46   1.656
7116.34   1.655
7121.22   1.667
7126.10   1.629
7130.99   1.600
7135.87   1.603
7140.75   1.619
7145.63   1.624
7150.51   1.608
7155.40   1.619
7160.28   1.620
7165.16   1.570
7170.04   1.598
7174.92   1.590
7179.81   1.582
7184.69   1.573
7189.57   1.559
7194.45   1.580
7199.33   1.611
7204.22   1.573
7209.10   1.567
7213.98   1.542
7218.86   1.538
7223.74   1.504
7228.63   1.552
7233.51   1.562
7238.39   1.586
7243.27   1.591
7248.15   1.580
7253.04   1.571
7257.92   1.546
7262.80   1.524
7267.68   1.523
7272.56   1.503
7277.45   1.555
7282.33   1.526
7287.21   1.501
7292.09   1.514
7296.97   1.529
7301.86   1.497
7306.74   1.525
7311.62   1.527
7316.50   1.503
7321.38   1.497
7326.27   1.466
7331.15   1.444
7336.03   1.463
7340.91   1.522
7345.79   1.492
7350.68   1.460
7355.56   1.471
7360.44   1.484
7365.32   1.471
7370.20   1.457
7375.09   1.450
7379.97   1.472
7384.85   1.472
7389.73   1.469
7394.61   1.479
7399.50   1.476
7404.38   1.433
7409.26   1.410
7414.14   1.431
7419.02   1.429
7423.91   1.441
7428.79   1.379
7433.67   1.407
7438.55   1.423
7443.43   1.434
7448.32   1.422
7453.20   1.430
7458.08   1.422
7462.96   1.391
7467.84   1.363
7472.73   1.382
7477.61   1.386
7482.49   1.392
7487.37   1.420
7492.25   1.393
7497.14   1.380
7502.02   1.396
7506.90   1.357
7511.78   1.356
7516.66   1.353
7521.55   1.399
7526.43   1.414
7531.31   1.403
7536.19   1.421
7541.07   1.391
7545.96   1.328
7550.84   1.318
7555.72   1.307
7560.60   1.329
7565.48   1.305
7570.37   1.387
7575.25   1.378
7580.13   1.387
7585.01   1.350
7589.89   1.336
7594.78   1.317
7599.66   1.297
7604.54   1.303
7609.42   1.313
7614.30   1.303
7619.19   1.325
7624.07   1.330
7628.95   1.323
7633.83   1.331
7638.71   1.315
7643.60   1.296
7648.48   1.280
7653.36   1.279
7658.24   1.247
7663.12   1.243
7668.01   1.274
7672.89   1.276
7677.77   1.278
7682.65   1.281
7687.53   1.292
7692.42   1.290
7697.30   1.259
7702.18   1.216
7707.06   1.207
7711.94   1.229
7716.83   1.242
7721.71   1.257
7726.59   1.270
7731.47   1.259
7736.35   1.303
7741.24   1.283
7746.12   1.256
7751.00   1.236
7755.88   1.223
7760.76   1.199
7765.65   1.202
7770.53   1.153
7775.41   1.218
7780.29   1.204
7785.17   1.239
7790.06   1.248
7794.94   1.241
7799.82   1.215
7804.70   1.153
7809.58   1.215
7814.47   1.156
7819.35   1.182
7824.23   1.160
7829.11   1.177
7833.99   1.226
7838.88   1.228
7843.76   1.225
7848.64   1.234
7853.52   1.215
7858.40   1.212
7863.29   1.166
7868.17   1.166
7873.05   1.145
7877.93   1.165
7882.81   1.159
7887.70   1.144
7892.58   1.232
7897.46   1.204
7902.34   1.211
7907.22   1.217
7912.11   1.190
7916.99   1.160
7921.87   1.183
7926.75   1.167
7931.63   1.107
7936.52   1.138
7941.40   1.156
7946.28   1.153
7951.16   1.107
7956.04   1.114
7960.93   1.101
7965.81   1.145
7970.69   1.125
7975.57   1.152
7980.45   1.138
7985.34   1.116
7990.22   1.137
7995.10   1.145
7999.98   1.101
8004.86   1.095
8009.75   1.088
8014.63   1.078
8019.51   1.112
8024.39   1.099
8029.27   1.115
8034.16   1.138
8039.04   1.108
8043.92   1.096
8048.80   1.075
8053.68   1.047
8058.57   1.049
8063.45   1.030
8068.33   1.041
8073.21   1.077
8078.09   1.096
8082.98   1.085
8087.86   1.081
8092.74   1.047
8097.62   1.020
8102.50   1.022
8107.39   1.025
8112.27   1.021
8117.15   0.9985
8122.03   1.023
8126.91   1.017
8131.80   1.011
8136.68   1.025
8141.56   1.017
8146.44   1.080
8151.32   1.069
8156.21   1.058
8161.09   1.002
8165.97   0.9933
8170.85   1.002
8175.73   0.9883
8180.62   0.9459
8185.50   1.025
8190.38   1.013
8195.26   1.027
8200.14   1.012
8205.03   0.9834
8209.91   0.9821
8214.79   0.9694
8219.67   0.9805
8224.55   0.9997
8229.44   1.014
8234.32   1.014
8239.20   1.013
8244.08   0.9851
8248.96   0.9810
8253.85   0.9322
8258.73   0.9411
8263.61   0.9593
8268.49   0.9661
8273.37   1.006
8278.26   1.007
8283.14   0.9504
8288.02   0.9756
8292.90   0.9628
8297.78   0.9609
8302.67   0.9684
8307.55   0.9240
8312.43   0.9319
8317.31   0.9212
8322.19   0.9589
8327.08   0.9304
8331.96   0.9542
8336.84   0.8808
8341.72   0.9819
8346.60   0.9822
8351.49   0.9641
8356.37   0.9502
8361.25   0.8943
8366.13   0.8414
8371.01   0.9204
8375.90   0.8568
8380.78   0.8932
8385.66   0.8621
8390.54   0.8714
8395.42   0.8941
8400.31   0.8730
8405.19   0.9416
8410.07   0.9451
8414.95   0.9279
8419.83   0.9262
8424.72   0.9344
8429.60   0.9469
8434.48   0.9173
8439.36   0.9112
8444.24   0.9015
8449.13   0.9146
8454.01   0.9003
8458.89   0.8087
8463.77   0.8458
8468.65   0.8317
8473.54   0.8694
8478.42   0.8665
8483.30   0.8895
8488.18   0.8887
8493.06   0.9092
8497.95   0.8902
8502.83   0.9035
8507.71   0.8950
8512.59   0.9368
8517.47   0.8798
8522.36   0.8710
8527.24   0.8416
8532.12   0.8262
8537.00   0.8144
8541.88   0.7683
8546.77   0.8043
8551.65   0.8113
8556.53   0.8232
8561.41   0.8479
8566.29   0.8931
8571.18   0.9380
8576.06   0.9030
8580.94   0.8718
8585.82   0.8574
8590.70   0.8639
8595.59   0.8907
8600.47   0.7848
8605.35   0.8233
8610.23   0.7912
8615.11   0.8555
8620.00   0.8134
8624.88   0.8359
8629.76   0.8424
8634.64   0.8255
8639.52   0.7994
8644.41   0.8248
8649.29   0.8191
8654.17   0.8184
8659.05   0.8183
8663.93   0.8007
8668.82   0.7519
8673.70   0.7483
8678.58   0.8232
8683.46   0.8326
8688.34   0.8057
8693.23   0.8742
8698.11   0.9352
8702.99   0.8980
8707.87   0.8882
8712.75   0.8802
8717.64   0.8633
8722.52   0.8337
8727.40   0.7926
8732.28   0.7928
8737.16   0.7375
8742.05   0.7306
8746.93   0.7265
8751.81   0.7280
8756.69   0.7318
8761.57   0.7925
8766.46   0.8240
8771.34   0.8569
8776.22   0.8841
8781.10   0.8694
8785.98   0.8943
8790.87   0.8666
8795.75   0.8412
8800.63   0.8014
8805.51   0.8237
8810.39   0.8435
8815.28   0.7889
8820.16   0.8308
8825.04   0.8050
8829.92   0.8187
8834.80   0.7795
8839.69   0.7865
8844.57   0.7387
8849.45   0.7307
8854.33   0.7285
8859.21   0.6845
8864.10   0.6781
8868.98   0.7141
8873.86   0.7498
8878.74   0.7508
8883.62   0.7857
8888.51   0.7769
8893.39   0.7691
8898.27   0.7876
8903.15   0.7673
8908.03   0.7723
8912.92   0.8071
8917.80   0.7714
8922.68   0.7446
8927.56   0.7958
8932.44   0.7952
8937.33   0.7922
8942.21   0.8220
8947.09   0.7515
8951.97   0.8529
8956.85   0.7728
8961.74   0.8001
8966.62   0.8477
8971.50   0.7515
8976.38   0.8060
8981.26   0.7217
8986.15   0.6663
8991.03   0.6896
8995.91   0.6898
9000.79   0.7034
9005.67   0.6516
9010.56   0.6715
9015.44   0.7240
9020.32   0.7008
9025.20   0.7108
9030.08   0.7642
9034.97   0.7817
9039.85   0.7662
9044.73   0.7936
9049.61   0.7699
9054.49   0.7977
9059.38   0.7725
9064.26   0.7179
9069.14   0.7653
9074.02   0.7381
9078.90   0.6797
9083.79   0.7261
9088.67   0.7245
9093.55   0.7563
9098.43   0.7643
9103.31   0.8060
9108.20   0.8043
9113.08   0.8425
9117.96   0.8207
9122.84   0.8316
9127.72   0.8268
9132.61   0.7758
9137.49   0.8033
9142.37   0.7257
9147.25   0.6690
9152.13   0.7205
9157.02   0.6560
9161.90   0.6720
9166.78   0.6655
9171.66   0.7089
9176.54   0.6684
9181.43   0.6891
9186.31   0.7366
9191.19   0.7515
9196.07   0.7374
9200.95   0.7664
9205.84   0.7698
9210.72   0.7138
9215.60   0.6888
9220.48   0.6307
9225.36   0.5600
9230.25   0.5172
9235.13   0.5328
9240.01   0.5599
9244.89   0.6271
9249.77   0.6380
9254.66   0.6512
9259.54   0.6567
9264.42   0.6837
9269.30   0.7570
9274.18   0.7292
9279.07   0.7793
9283.95   0.7496
9288.83   0.7136
9293.71   0.6680
9298.59   0.6517
9303.48   0.6051
9308.36   0.6150
9313.24   0.6086
9318.12   0.6297
9323.00   0.6336
9327.89   0.6076
9332.77   0.6462
9337.65   0.6687
9342.53   0.6763
9347.41   0.6892
9352.30   0.7090
9357.18   0.7511
9362.06   0.7327
9366.94   0.7486
9371.82   0.7283
9376.71   0.7025
9381.59   0.7231
9386.47   0.6584
9391.35   0.6282
9396.23   0.5666
9401.12   0.5853
9406.00   0.5925
9410.88   0.5612
9415.76   0.5647
9420.64   0.5952
9425.53   0.5956
9430.41   0.6048
9435.29   0.6805
9440.17   0.6393
9445.05   0.6592
9449.94   0.7309
9454.82   0.7356
9459.70   0.6984
9464.58   0.6585
9469.46   0.6206
9474.35   0.5242
9479.23   0.5433
9484.11   0.5043
9488.99   0.5064
9493.87   0.5608
9498.76   0.5563
9503.64   0.5311
9508.52   0.5473
9513.40   0.5285
9518.28   0.5643
9523.17   0.5902
9528.05   0.5997
9532.93   0.5622
9537.81   0.5973
9542.69   0.5781
9547.58   0.5111
9552.46   0.5031
9557.34   0.4986
9562.22   0.4795
9567.10   0.5078
9571.99   0.4851
9576.87   0.5045
9581.75   0.4960
9586.63   0.5362
9591.51   0.5544
9596.40   0.6075
9601.28   0.6107
9606.16   0.6204
9611.04   0.6703
9615.92   0.6708
9620.81   0.6009
9625.69   0.4939
9630.57   0.4739
9635.45   0.5078
9640.33   0.5006
9645.22   0.5077
9650.10   0.5060
9654.98   0.5671
9659.86   0.6118
9664.74   0.6423
9669.63   0.6420
9674.51   0.6177
9679.39   0.6201
9684.27   0.6171
9689.15   0.5660
9694.04   0.5412
9698.92   0.4940
9703.80   0.4842
9708.68   0.4888
9713.56   0.5183
9718.45   0.4803
9723.33   0.5143
9728.21   0.4546
9733.09   0.4905
9737.97   0.4713
9742.86   0.4814
9747.74   0.5535
9752.62   0.5074
9757.50   0.5480
9762.38   0.5647
9767.27   0.5956
9772.15   0.5885
9777.03   0.6419
9781.91   0.6166
9786.79   0.5420
9791.68   0.5189
9796.56   0.4789
9801.44   0.4734
9806.32   0.4731
9811.20   0.4606
9816.09   0.4561
9820.97   0.4531
9825.85   0.4626
9830.73   0.5109
9835.61   0.5581
9840.50   0.5661
9845.38   0.5448
9850.26   0.6275
9855.14   0.6133
9860.02   0.5724
9864.91   0.5021
9869.79   0.4993
9874.67   0.4968
9879.55   0.4440
9884.43   0.4741
9889.32   0.4542
9894.20   0.4835
9899.08   0.4531
9903.96   0.4406
9908.84   0.4200
9913.73   0.3688
9918.61   0.4716
9923.49   0.4281
9928.37   0.4357
9933.25   0.4335
9938.14   0.4842
9943.02   0.4540
9947.90   0.4369
9952.78   0.4407
9957.66   0.4581
9962.55   0.5010
9967.43   0.4611
9972.31   0.4938
9977.19   0.5029
9982.07   0.5425
9986.96   0.5528
9991.84   0.5068
9996.72   0.5108
10001.6   0.4182
10006.5   0.3752
10011.4   0.4133
10016.2   0.3583
10021.1   0.3890
10026.0   0.3863
10030.9   0.3826
10035.8   0.3360
10040.7   0.2890
10045.5   0.3383
10050.4   0.3414
10055.3   0.3511
10060.2   0.3341
10065.1   0.3909
10070.0   0.4229
10074.8   0.4490
10079.7   0.4340
10084.6   0.4605
10089.5   0.4807
10094.4   0.4424
10099.2   0.4327
10104.1   0.4912
10109.0   0.4763
10113.9   0.4403
10118.8   0.4209
10123.7   0.4202
10128.5   0.3339
10133.4   0.3464
10138.3   0.3662
10143.2   0.3254
10148.1   0.3443
10152.9   0.3284
10157.8   0.3264
10162.7   0.2789
10167.6   0.2408
10172.5   0.3045
10177.4   0.2835
10182.2   0.2977
10187.1   0.3373
10192.0   0.3343
10196.9   0.3688
10201.8   0.4522
10206.6   0.4213
10211.5   0.3746
10216.4   0.2732
10221.3   0.3301
10226.2   0.3343
10231.1   0.3921
10235.9   0.2704
10240.8   0.2481
10245.7   0.3938
