#Wavelength(Ang.A)  F_lambda(10^-12ergs/s/cm^2/A)
1150.58   0.09871
1152.26   0.1214
1153.93   0.1604
1155.61   0.1737
1157.29   0.1822
1158.96   0.1830
1160.64   0.1846
1162.31   0.1924
1163.99   0.2044
1165.67   0.1907
1167.34   0.1949
1169.02   0.1895
1170.70   0.1861
1172.37   0.1818
1174.05   0.1649
1175.73   0.1578
1177.40   0.1544
1179.08   0.1635
1180.75   0.1811
1182.43   0.1913
1184.11   0.2020
1185.78   0.2063
1187.46   0.1992
1189.14   0.2122
1190.81   0.2078
1192.49   0.1934
1194.17   0.1875
1195.84   0.1769
1197.52   0.1666
1199.19   0.1581
1200.87   0.1327
1202.55   0.1179
1204.22   0.1023
1205.90   0.08098
1207.58   0.07523
1209.25   0.07457
1210.93   0.07782
1212.60   0.08496
1214.28   0.09210
1215.96   0.09172
1217.63   0.09653
1219.31   0.09751
1220.99   0.1019
1222.66   0.1186
1224.34   0.1378
1226.02   0.1583
1227.69   0.1824
1229.37   0.2097
1231.04   0.2333
1232.72   0.2616
1234.40   0.2781
1236.07   0.2976
1237.75   0.3253
1239.43   0.3474
1241.10   0.3754
1242.78   0.3996
1244.46   0.4137
1246.13   0.4253
1247.81   0.4321
1249.48   0.4359
1251.16   0.4483
1252.84   0.4505
1254.51   0.4497
1256.19   0.4431
1257.87   0.4337
1259.54   0.4286
1261.22   0.4254
1262.89   0.4155
1264.57   0.4138
1266.25   0.4223
1267.92   0.4448
1269.60   0.4619
1271.28   0.4781
1272.95   0.4843
1274.63   0.4913
1276.31   0.5071
1277.98   0.5209
1279.66   0.5363
1281.33   0.5558
1283.01   0.5717
1284.69   0.5834
1286.36   0.5945
1288.04   0.5872
1289.72   0.5783
1291.39   0.5628
1293.07   0.5436
1294.75   0.5160
1296.42   0.4985
1298.10   0.4774
1299.77   0.4641
1301.45   0.4589
1303.13   0.4528
1304.80   0.4612
1306.48   0.4752
1308.16   0.5049
1309.83   0.5407
1311.51   0.5784
1313.19   0.6260
1314.86   0.6644
1316.54   0.7076
1318.21   0.7404
1319.89   0.7601
1321.57   0.7717
1323.24   0.7844
1324.92   0.7825
1326.60   0.7792
1328.27   0.7598
1329.95   0.7330
1331.62   0.7029
1333.30   0.6946
1334.98   0.7066
1336.65   0.7104
1338.33   0.7172
1340.01   0.7359
1341.68   0.7821
1343.36   0.8363
1345.04   0.8661
1346.71   0.8705
1348.39   0.8963
1350.06   0.9396
1351.74   0.9664
1353.42   0.9983
1355.09   0.9982
1356.77   0.9969
1358.45   0.9983
1360.12   0.9755
1361.80   0.9545
1363.48   0.9338
1365.15   0.9155
1366.83   0.9254
1368.50   0.9375
1370.18   0.9499
1371.86   0.9685
1373.53   0.9753
1375.21   0.9898
1376.89   0.9788
1378.56   0.9791
1380.24   0.9799
1381.91   0.9849
1383.59   0.9959
1385.27   1.012
1386.94   1.025
1388.62   1.033
1390.30   1.012
1391.97   1.014
1393.65   1.038
1395.33   1.040
1397.00   1.030
1398.68   1.037
1400.35   1.050
1402.03   1.087
1403.71   1.104
1405.38   1.093
1407.06   1.089
1408.74   1.099
1410.41   1.105
1412.09   1.103
1413.77   1.083
1415.44   1.080
1417.12   1.085
1418.79   1.100
1420.47   1.123
1422.15   1.140
1423.82   1.170
1425.50   1.208
1427.18   1.239
1428.85   1.248
1430.53   1.250
1432.20   1.255
1433.88   1.255
1435.56   1.266
1437.23   1.284
1438.91   1.292
1440.59   1.291
1442.26   1.325
1443.94   1.335
1445.62   1.355
1447.29   1.374
1448.97   1.400
1450.64   1.430
1452.32   1.463
1454.00   1.478
1455.67   1.494
1457.35   1.509
1459.03   1.525
1460.70   1.524
1462.38   1.509
1464.06   1.509
1465.73   1.515
1467.41   1.516
1469.08   1.497
1470.76   1.464
1472.44   1.437
1474.11   1.428
1475.79   1.437
1477.47   1.432
1479.14   1.417
1480.82   1.409
1482.50   1.412
1484.17   1.431
1485.85   1.443
1487.52   1.438
1489.20   1.444
1490.88   1.468
1492.55   1.484
1494.23   1.497
1495.91   1.501
1497.58   1.484
1499.26   1.464
1500.93   1.440
1502.61   1.439
1504.29   1.440
1505.96   1.434
1507.64   1.401
1509.32   1.409
1510.99   1.401
1512.67   1.400
1514.35   1.384
1516.02   1.388
1517.70   1.417
1519.37   1.436
1521.05   1.460
1522.73   1.489
1524.40   1.492
1526.08   1.503
1527.76   1.508
1529.43   1.477
1531.11   1.479
1532.79   1.455
1534.46   1.456
1536.14   1.478
1537.81   1.477
1539.49   1.490
1541.17   1.491
1542.84   1.498
1544.52   1.503
1546.20   1.527
1547.87   1.529
1549.55   1.533
1551.22   1.538
1552.90   1.562
1554.58   1.562
1556.25   1.576
1557.93   1.559
1559.61   1.557
1561.28   1.561
1562.96   1.552
1564.64   1.564
1566.31   1.571
1567.99   1.578
1569.66   1.600
1571.34   1.611
1573.02   1.633
1574.69   1.633
1576.37   1.633
1578.05   1.657
1579.72   1.673
1581.40   1.681
1583.08   1.716
1584.75   1.729
1586.43   1.779
1588.10   1.803
1589.78   1.809
1591.46   1.817
1593.13   1.830
1594.81   1.810
1596.49   1.798
1598.16   1.754
1599.84   1.727
1601.52   1.736
1603.19   1.727
1604.87   1.703
1606.54   1.688
1608.22   1.698
1609.90   1.716
1611.57   1.734
1613.25   1.740
1614.93   1.780
1616.60   1.822
1618.28   1.853
1619.95   1.838
1621.63   1.831
1623.31   1.785
1624.98   1.777
1626.66   1.737
1628.34   1.707
1630.01   1.671
1631.69   1.640
1633.37   1.610
1635.04   1.643
1636.72   1.602
1638.39   1.618
1640.07   1.580
1641.75   1.586
1643.42   1.607
1645.10   1.621
1646.78   1.592
1648.45   1.627
1650.13   1.571
1651.81   1.601
1653.48   1.594
1655.16   1.607
1656.83   1.589
1658.51   1.588
1660.19   1.623
1661.86   1.635
1663.54   1.645
1665.22   1.689
1666.89   1.709
1668.57   1.720
1670.24   1.737
1671.92   1.725
1673.60   1.733
1675.27   1.725
1676.95   1.682
1678.63   1.650
1680.30   1.670
1681.98   1.718
1683.66   1.672
1685.33   1.717
1687.01   1.705
1688.68   1.748
1690.36   1.771
1692.04   1.769
1693.71   1.712
1695.39   1.718
1697.07   1.680
1698.74   1.711
1700.42   1.640
1702.10   1.612
1703.77   1.625
1705.45   1.650
1707.12   1.634
1708.80   1.610
1710.48   1.555
1712.15   1.592
1713.83   1.559
1715.51   1.503
1717.18   1.445
1718.86   1.445
1720.54   1.425
1722.21   1.441
1723.89   1.388
1725.56   1.440
1727.24   1.518
1728.92   1.622
1730.59   1.617
1732.27   1.683
1733.95   1.662
1735.62   1.703
1737.30   1.681
1738.97   1.609
1740.65   1.527
1742.33   1.504
1744.00   1.451
1745.68   1.488
1747.36   1.534
1749.03   1.501
1750.71   1.528
1752.39   1.598
1754.06   1.568
1755.74   1.552
1757.41   1.473
1759.09   1.344
1760.77   1.410
1762.44   1.354
1764.12   1.278
1765.80   1.286
1767.47   1.264
1769.15   1.268
1770.83   1.267
1772.50   1.199
1774.18   1.161
1775.85   1.143
1777.53   1.158
1779.21   1.279
1780.88   1.380
1782.56   1.391
1784.24   1.371
1785.91   1.371
1787.59   1.336
1789.26   1.322
1790.94   1.187
1792.62   1.092
1794.29   1.201
1795.97   1.220
1797.65   1.370
1799.32   1.499
1801.00   1.466
1802.68   1.571
1804.35   1.644
1806.03   1.601
1807.70   1.671
1809.38   1.541
1811.06   1.473
1812.73   1.563
1814.41   1.472
1816.09   1.435
1817.76   1.469
1819.44   1.409
1821.12   1.518
1822.79   1.562
1824.47   1.568
1826.14   1.671
1827.82   1.613
1829.50   1.595
1831.17   1.635
1832.85   1.594
1834.53   1.537
1836.20   1.530
1837.88   1.496
1839.55   1.545
1841.23   1.527
1842.91   1.495
1844.58   1.487
1846.26   1.518
1847.94   1.499
1849.61   1.453
1851.29   1.454
1852.97   1.468
1854.64   1.497
1856.32   1.488
1857.99   1.469
1859.67   1.476
1861.35   1.504
1863.02   1.540
1864.70   1.540
1866.38   1.547
1868.05   1.614
1869.73   1.639
1871.41   1.732
1873.08   1.739
1874.76   1.716
1876.43   1.753
1878.11   1.738
1879.79   1.681
1881.46   1.671
1883.14   1.567
1884.82   1.590
1886.49   1.577
1888.17   1.524
1889.85   1.491
1891.52   1.499
1893.20   1.538
1894.87   1.560
1896.55   1.537
1898.23   1.564
1899.90   1.554
1901.58   1.600
1903.26   1.628
1904.93   1.575
1906.61   1.613
1908.28   1.653
1909.96   1.646
1911.64   1.636
1913.31   1.599
1914.99   1.559
1916.67   1.590
1918.34   1.616
1920.02   1.666
1921.70   1.717
1923.37   1.761
1925.05   1.887
1926.72   1.924
1928.40   1.948
1931.06   1.455
1933.72   1.522
1936.39   1.548
1939.05   1.616
1941.71   1.677
1944.37   1.668
1947.04   1.650
1949.70   1.709
1952.36   1.701
1955.03   1.684
1957.69   1.633
1960.35   1.574
1963.01   1.628
1965.68   1.621
1968.34   1.557
1971.00   1.580
1973.66   1.611
1976.33   1.634
1978.99   1.634
1981.65   1.612
1984.31   1.627
1986.98   1.635
1989.64   1.599
1992.30   1.511
1994.97   1.492
1997.63   1.519
2000.29   1.455
2002.95   1.471
2005.62   1.492
2008.28   1.475
2010.94   1.489
2013.60   1.528
2016.27   1.515
2018.93   1.568
2021.59   1.567
2024.25   1.487
2026.92   1.512
2029.58   1.486
2032.24   1.484
2034.91   1.472
2037.57   1.435
2040.23   1.451
2042.89   1.478
2045.56   1.470
2048.22   1.575
2050.88   1.513
2053.54   1.480
2056.21   1.494
2058.87   1.479
2061.53   1.476
2064.19   1.492
2066.86   1.419
2069.52   1.444
2072.18   1.485
2074.85   1.473
2077.51   1.453
2080.17   1.431
2082.83   1.384
2085.50   1.355
2088.16   1.318
2090.82   1.296
2093.48   1.306
2096.15   1.300
2098.81   1.307
2101.47   1.368
2104.13   1.356
2106.80   1.384
2109.46   1.398
2112.12   1.397
2114.79   1.429
2117.45   1.441
2120.11   1.442
2122.77   1.425
2125.44   1.394
2128.10   1.384
2130.76   1.337
2133.42   1.302
2136.09   1.319
2138.75   1.273
2141.41   1.340
2144.07   1.351
2146.74   1.328
2149.40   1.344
2152.06   1.325
2154.73   1.315
2157.39   1.286
2160.05   1.308
2162.71   1.284
2165.38   1.298
2168.04   1.335
2170.70   1.328
2173.36   1.321
2176.03   1.365
2178.69   1.345
2181.35   1.372
2184.01   1.384
2186.68   1.379
2189.34   1.415
2192.00   1.425
2194.67   1.403
2197.33   1.359
2199.99   1.381
2202.65   1.369
2205.32   1.343
2207.98   1.339
2210.64   1.315
2213.30   1.342
2215.97   1.398
2218.63   1.385
2221.29   1.403
2223.95   1.425
2226.62   1.428
2229.28   1.446
2231.94   1.423
2234.61   1.378
2237.27   1.392
2239.93   1.406
2242.59   1.361
2245.26   1.368
2247.92   1.378
2250.58   1.373
2253.24   1.364
2255.91   1.362
2258.57   1.412
2261.23   1.452
2263.90   1.434
2266.56   1.432
2269.22   1.421
2271.88   1.437
2274.55   1.419
2277.21   1.382
2279.87   1.392
2282.53   1.438
2285.20   1.435
2287.86   1.462
2290.52   1.476
2293.18   1.472
2295.85   1.485
2298.51   1.461
2301.17   1.409
2303.83   1.398
2306.50   1.391
2309.16   1.374
2311.82   1.383
2314.49   1.346
2317.15   1.353
2319.81   1.365
2322.47   1.378
2325.14   1.369
2327.80   1.394
2330.46   1.426
2333.12   1.415
2335.79   1.400
2338.45   1.373
2341.11   1.376
2343.77   1.400
2346.44   1.394
2349.10   1.363
2351.76   1.392
2354.43   1.393
2357.09   1.423
2359.75   1.409
2362.41   1.391
2365.08   1.372
2367.74   1.425
2370.40   1.426
2373.06   1.434
2375.73   1.449
2378.39   1.442
2381.05   1.452
2383.71   1.494
2386.38   1.471
2389.04   1.503
2391.70   1.506
2394.37   1.529
2397.03   1.537
2399.69   1.533
2402.35   1.483
2405.02   1.439
2407.68   1.387
2410.34   1.417
2413.00   1.411
2415.67   1.441
2418.33   1.500
2420.99   1.509
2423.66   1.551
2426.32   1.607
2428.98   1.607
2431.64   1.581
2434.31   1.585
2436.97   1.564
2439.63   1.592
2442.29   1.609
2444.96   1.583
2447.62   1.584
2450.28   1.582
2452.94   1.549
2455.61   1.544
2458.27   1.550
2460.93   1.531
2463.59   1.524
2466.26   1.539
2468.92   1.555
2471.58   1.588
2474.25   1.611
2476.91   1.567
2479.57   1.552
2482.23   1.544
2484.90   1.527
2487.56   1.519
2490.22   1.499
2492.88   1.450
2495.55   1.533
2498.21   1.546
2500.87   1.560
2503.54   1.512
2506.20   1.493
2508.86   1.410
2511.52   1.389
2514.19   1.324
2516.85   1.326
2519.51   1.281
2522.17   1.357
2524.84   1.305
2527.50   1.418
2530.16   1.452
2532.82   1.402
2535.49   1.406
2538.15   1.436
2540.81   1.450
2543.48   1.561
2546.14   1.633
2548.80   1.546
2551.46   1.624
2554.13   1.567
2556.79   1.521
2559.45   1.507
2562.11   1.467
2564.78   1.389
2567.44   1.532
2570.10   1.455
2572.76   1.542
2575.43   1.626
2578.09   1.495
2580.75   1.516
2583.42   1.562
2586.08   1.396
2588.74   1.387
2591.40   1.284
2594.07   1.151
2596.73   1.252
2599.39   1.238
2602.05   1.171
2604.72   1.297
2607.38   1.249
2610.04   1.318
2612.70   1.307
2615.37   1.198
2618.03   1.171
2620.69   1.193
2623.35   1.074
2626.02   1.085
2628.68   1.006
2631.34   1.015
2634.01   1.102
2636.67   1.112
2639.33   1.093
2641.99   1.190
2644.66   1.214
2647.32   1.278
2649.98   1.292
2652.64   1.218
2655.31   1.156
2657.97   1.090
2660.63   1.024
2663.30   0.9935
2665.96   0.8558
2668.62   0.8489
2671.28   0.8167
2673.95   0.7807
2676.61   0.7316
2679.27   0.6871
2681.93   0.6859
2684.60   0.6935
2687.26   0.6734
2689.92   0.7125
2692.58   0.6829
2695.25   0.6679
2697.91   0.6545
2700.57   0.6464
2703.24   0.6716
2705.90   0.6669
2708.56   0.6441
2711.22   0.6518
2713.89   0.6514
2716.55   0.6423
2719.21   0.6374
2721.87   0.6157
2724.54   0.6088
2727.20   0.6014
2729.86   0.6087
2732.52   0.6283
2735.19   0.6312
2737.85   0.6281
2740.51   0.6384
2743.18   0.6592
2745.84   0.6561
2748.50   0.6510
2751.16   0.6376
2753.83   0.6430
2756.49   0.6660
2759.15   0.6649
2761.81   0.6296
2764.48   0.6177
2767.14   0.6073
2769.80   0.6018
2772.46   0.5874
2775.13   0.5618
2777.79   0.5638
2780.45   0.5671
2783.12   0.5619
2785.78   0.5658
2788.44   0.5508
2791.10   0.5453
2793.77   0.5303
2796.43   0.5143
2799.09   0.5226
2801.75   0.5231
2804.42   0.4976
2807.08   0.5184
2809.74   0.5129
2812.40   0.5198
2815.07   0.5209
2817.73   0.5040
2820.39   0.5035
2823.06   0.5177
2825.72   0.4918
2828.38   0.5063
2831.04   0.5250
2833.71   0.5059
2836.37   0.4999
2839.03   0.5086
2841.69   0.5028
2844.36   0.5177
2847.02   0.5359
2849.68   0.5085
2852.34   0.5368
2855.01   0.5342
2857.67   0.5135
2860.33   0.5072
2863.00   0.5051
2865.66   0.4779
2868.32   0.4920
2870.98   0.4735
2873.65   0.4997
2876.31   0.5019
2878.97   0.5071
2881.63   0.5073
2884.30   0.5035
2886.96   0.4933
2889.62   0.4907
2892.28   0.4733
2894.95   0.4860
2897.61   0.4997
2900.27   0.4804
2902.94   0.4929
2905.60   0.4879
2908.26   0.4903
2910.92   0.4989
2913.59   0.4876
2916.25   0.4707
2918.91   0.4795
2921.57   0.4663
2924.24   0.4876
2926.90   0.5006
2929.56   0.4979
2932.22   0.4952
2934.89   0.5027
2937.55   0.5039
2940.21   0.5115
2942.88   0.5089
2945.54   0.5046
2948.20   0.5204
2950.86   0.5181
2953.53   0.5185
2956.19   0.5513
2958.85   0.5518
2961.51   0.5378
2964.18   0.5371
2966.84   0.5162
2969.50   0.5382
2972.16   0.5195
2974.83   0.4920
2977.49   0.5360
2980.15   0.5481
2982.82   0.5670
2985.48   0.5933
2988.14   0.5993
2990.80   0.6521
2993.47   0.6751
2996.13   0.6499
2998.79   0.7032
3001.45   0.7279
3004.12   0.7598
3006.78   0.8058
3009.44   0.8328
3012.10   0.9064
3014.77   0.9762
3017.43   0.9979
3020.09   1.044
3022.76   1.090
3025.42   1.116
3028.08   1.173
3030.74   1.178
3033.41   1.232
3036.07   1.241
3038.73   1.241
3041.39   1.214
3044.06   1.164
3046.72   1.071
3049.38   1.009
3052.04   0.9272
3054.71   0.9180
3057.37   0.9034
3060.03   0.9132
3062.70   0.9474
3065.36   1.028
3068.02   1.198
3070.68   1.241
3073.35   1.348
3076.01   1.399
3078.67   1.423
3081.33   1.471
3084.00   1.501
3086.66   1.468
3089.32   1.506
3091.98   1.506
3094.65   1.543
3097.31   1.583
3099.97   1.635
3102.64   1.679
3105.30   1.657
3107.96   1.664
3110.62   1.645
3113.29   1.628
3115.95   1.630
3118.61   1.607
3121.27   1.578
3123.94   1.574
3126.60   1.580
3129.26   1.549
3131.92   1.548
3134.59   1.546
3137.25   1.543
3139.91   1.558
3142.58   1.570
3145.24   1.585
3147.90   1.592
3150.56   1.588
3153.23   1.577
3155.89   1.570
3158.55   1.552
3161.21   1.538
3163.88   1.530
3166.54   1.533
3169.20   1.522
3171.86   1.523
3174.53   1.530
3177.19   1.528
3179.85   1.518
3182.52   1.515
3185.18   1.505
3187.84   1.509
3190.50   1.509
3193.17   1.504
3195.83   1.514
3198.49   1.507
3201.15   1.489
3203.82   1.495
3206.48   1.503
3209.14   1.519
3211.80   1.524
3214.47   1.522
3217.13   1.534
3219.79   1.535
3222.46   1.537
3225.12   1.542
3227.78   1.546
3230.44   1.547
3233.11   1.536
3235.77   1.529
3238.43   1.511
3240.04   1.517
3242.79   1.518
3245.54   1.522
3248.28   1.499
3251.03   1.513
3253.77   1.523
3256.52   1.503
3259.27   1.530
3262.01   1.504
3264.76   1.471
3267.50   1.439
3270.25   1.492
3273.00   1.517
3275.74   1.543
3278.49   1.539
3281.23   1.502
3283.98   1.485
3286.73   1.490
3289.47   1.494
3292.22   1.523
3294.96   1.488
3297.71   1.457
3300.46   1.516
3303.20   1.480
3305.95   1.530
3308.69   1.534
3311.44   1.451
3314.19   1.450
3316.93   1.494
3319.68   1.470
3322.42   1.490
3325.17   1.523
3327.92   1.514
3330.66   1.531
3333.41   1.500
3336.15   1.497
3338.90   1.504
3341.65   1.488
3344.39   1.506
3347.14   1.498
3349.88   1.510
3352.63   1.460
3355.38   1.457
3358.12   1.467
3360.87   1.470
3363.61   1.505
3366.36   1.474
3369.11   1.489
3371.85   1.501
3374.60   1.481
3377.34   1.447
3380.09   1.438
3382.84   1.476
3385.58   1.512
3388.33   1.449
3391.07   1.462
3393.82   1.471
3396.57   1.479
3399.31   1.422
3402.06   1.437
3404.80   1.445
3407.55   1.484
3410.30   1.498
3413.04   1.443
3415.79   1.469
3418.53   1.487
3421.28   1.468
3424.03   1.449
3426.77   1.422
3429.52   1.451
3432.26   1.452
3435.01   1.420
3437.76   1.394
3440.50   1.403
3443.25   1.424
3445.99   1.439
3448.74   1.452
3451.49   1.455
3454.23   1.475
3456.98   1.464
3459.72   1.416
3462.47   1.453
3465.22   1.436
3467.96   1.421
3470.71   1.411
3473.45   1.426
3476.20   1.442
3478.95   1.465
3481.69   1.486
3484.44   1.441
3487.18   1.429
3489.93   1.398
3492.68   1.424
3495.42   1.427
3498.17   1.414
3500.91   1.398
3503.66   1.396
3506.41   1.393
3509.15   1.395
3511.90   1.428
3514.64   1.451
3517.39   1.473
3520.14   1.447
3522.88   1.438
3525.63   1.414
3528.37   1.408
3531.12   1.411
3533.87   1.419
3536.61   1.423
3539.36   1.463
3542.10   1.430
3544.85   1.404
3547.60   1.398
3550.34   1.397
3553.09   1.403
3555.83   1.401
3558.58   1.389
3561.33   1.365
3564.07   1.381
3566.82   1.394
3569.56   1.399
3572.31   1.400
3575.06   1.406
3577.80   1.417
3580.55   1.396
3583.29   1.383
3586.04   1.382
3588.79   1.366
3591.53   1.406
3594.28   1.420
3597.02   1.351
3599.77   1.374
3602.52   1.406
3605.26   1.406
3608.01   1.382
3610.75   1.338
3613.50   1.348
3616.25   1.357
3618.99   1.387
3621.74   1.391
3624.48   1.405
3627.23   1.368
3629.98   1.349
3632.72   1.360
3635.47   1.368
3638.21   1.389
3640.96   1.361
3643.71   1.363
3646.45   1.369
3649.20   1.379
3651.94   1.385
3654.69   1.363
3657.44   1.344
3660.18   1.337
3662.93   1.359
3665.67   1.354
3668.42   1.330
3671.17   1.382
3673.91   1.368
3676.66   1.360
3679.40   1.385
3682.15   1.386
3684.90   1.375
3687.64   1.358
3690.39   1.341
3693.13   1.346
3695.88   1.307
3698.63   1.320
3701.37   1.306
3704.12   1.333
3706.86   1.321
3709.61   1.314
3712.36   1.369
3715.10   1.401
3717.85   1.342
3720.59   1.290
3723.34   1.348
3726.09   1.431
3728.83   1.390
3731.58   1.289
3734.32   1.286
3737.07   1.439
3739.82   1.575
3742.56   1.567
3745.31   1.413
3748.05   1.282
3750.80   1.361
3753.55   1.537
3756.29   1.692
3759.04   1.743
3761.78   1.698
3764.53   1.552
3767.28   1.358
3770.02   1.282
3772.77   1.446
3775.51   1.667
3778.26   1.819
3781.01   1.912
3783.75   1.954
3786.50   1.923
3789.24   1.763
3791.99   1.538
3794.74   1.327
3797.48   1.265
3800.23   1.407
3802.97   1.641
3805.72   1.830
3808.47   1.950
3811.21   2.012
3813.96   1.987
3816.70   1.890
3819.45   1.862
3822.20   1.902
3824.94   1.855
3827.69   1.688
3830.43   1.457
3833.18   1.288
3835.93   1.310
3838.67   1.507
3841.42   1.743
3844.16   1.921
3846.91   2.063
3849.66   2.117
3852.40   2.092
3855.15   2.091
3857.89   2.116
3860.64   2.130
3863.39   2.122
3866.13   2.102
3868.88   2.060
3871.62   2.022
3874.37   2.002
3877.12   1.923
3879.86   1.777
3882.61   1.576
3885.35   1.355
3888.10   1.271
3890.85   1.376
3893.59   1.596
3896.34   1.794
3899.08   1.951
3901.83   2.054
3904.58   2.109
3907.32   2.137
3910.07   2.144
3912.81   2.168
3915.56   2.151
3918.31   2.126
3921.05   2.114
3923.80   2.095
3926.54   2.082
3929.29   2.116
3932.04   2.121
3934.78   2.121
3937.53   2.138
3940.27   2.143
3943.02   2.157
3945.77   2.144
3948.51   2.109
3951.26   2.085
3954.00   2.034
3956.75   1.949
3959.50   1.818
3962.24   1.631
3964.99   1.409
3967.73   1.240
3970.48   1.264
3973.23   1.438
3975.97   1.642
3978.72   1.789
3981.46   1.887
3984.21   1.954
3986.96   2.013
3989.70   2.040
3992.45   2.052
3995.19   2.059
3997.94   2.067
4000.69   2.068
4003.43   2.031
4006.18   1.990
4008.92   2.002
4011.67   2.058
4014.42   2.088
4017.16   2.061
4019.91   2.000
4022.65   1.900
4025.40   1.832
4028.15   1.905
4030.89   2.027
4033.64   2.066
4036.38   2.065
4039.13   2.060
4041.88   2.056
4044.62   2.073
4047.37   2.061
4050.11   2.052
4052.86   2.077
4055.61   2.082
4058.35   2.048
4061.10   2.028
4063.84   2.024
4066.59   2.021
4069.34   2.059
4072.08   2.026
4074.83   1.968
4077.57   1.968
4080.32   1.968
4083.07   1.944
4085.81   1.891
4088.56   1.826
4091.30   1.713
4094.05   1.532
4096.80   1.357
4099.54   1.217
4102.29   1.236
4105.03   1.400
4107.78   1.558
4110.53   1.698
4113.27   1.819
4116.02   1.857
4118.76   1.871
4121.51   1.911
4124.26   1.930
4127.00   1.936
4129.75   1.958
4132.49   1.966
4135.24   1.955
4137.99   1.920
4140.73   1.868
4143.48   1.856
4146.22   1.913
4148.97   1.955
4151.72   1.973
4154.46   1.972
4157.21   1.967
4159.95   1.969
4162.70   1.958
4165.45   1.952
4168.19   1.959
4170.94   1.957
4173.68   1.965
4176.43   1.969
4179.18   1.964
4181.92   1.958
4184.67   1.939
4187.41   1.933
4190.16   1.932
4192.91   1.931
4195.65   1.929
4198.40   1.957
4201.14   1.948
4203.89   1.905
4206.64   1.919
4209.38   1.947
4212.13   1.940
4214.87   1.914
4217.62   1.927
4220.37   1.926
4223.11   1.929
4225.86   1.931
4228.60   1.914
4231.35   1.909
4234.10   1.908
4236.84   1.915
4239.59   1.903
4242.33   1.916
4245.08   1.898
4247.83   1.878
4250.57   1.880
4253.32   1.878
4256.06   1.865
4258.81   1.839
4261.56   1.856
4264.30   1.829
4267.05   1.844
4269.79   1.888
4272.54   1.869
4275.29   1.856
4278.03   1.850
4280.78   1.830
4283.52   1.837
4286.27   1.838
4289.02   1.822
4291.76   1.838
4294.51   1.845
4297.25   1.832
4300.00   1.824
4302.75   1.810
4305.49   1.802
4308.24   1.803
4310.98   1.806
4313.73   1.817
4316.48   1.792
4319.22   1.767
4321.97   1.751
4324.71   1.703
4327.46   1.631
4330.21   1.547
4332.95   1.403
4335.70   1.226
4338.44   1.100
4341.19   1.110
4343.94   1.251
4346.68   1.400
4349.43   1.518
4352.17   1.607
4354.92   1.698
4357.67   1.730
4360.41   1.732
4363.16   1.752
4365.90   1.769
4368.65   1.763
4371.40   1.752
4374.14   1.750
4376.89   1.767
4379.63   1.760
4382.38   1.729
4385.13   1.661
4387.87   1.634
4390.62   1.660
4393.36   1.716
4396.11   1.760
4398.86   1.759
4401.60   1.750
4404.35   1.744
4407.09   1.764
4409.84   1.769
4412.59   1.747
4415.33   1.740
4418.08   1.736
4420.82   1.742
4423.57   1.730
4426.32   1.718
4429.06   1.718
4431.81   1.732
4434.55   1.726
4437.30   1.740
4440.05   1.753
4442.79   1.728
4445.54   1.708
4448.28   1.716
4451.03   1.729
4453.78   1.727
4456.52   1.715
4459.27   1.710
4462.01   1.692
4464.76   1.642
4467.51   1.573
4470.25   1.506
4473.00   1.539
4475.74   1.624
4478.49   1.652
4481.24   1.644
4483.98   1.659
4486.73   1.687
4489.47   1.701
4492.22   1.686
4494.97   1.678
4497.71   1.654
4500.46   1.651
4503.20   1.664
4505.95   1.673
4508.70   1.678
4511.44   1.665
4514.19   1.648
4516.93   1.673
4519.68   1.670
4522.43   1.664
4525.17   1.683
4527.92   1.653
4530.66   1.659
4533.41   1.661
4536.16   1.661
4538.90   1.647
4541.65   1.635
4544.39   1.659
4547.14   1.643
4549.89   1.640
4552.63   1.618
4555.38   1.632
4558.12   1.634
4560.87   1.631
4563.62   1.645
4566.36   1.640
4569.11   1.631
4571.85   1.647
4574.60   1.645
4577.35   1.643
4580.09   1.627
4582.84   1.625
4585.58   1.615
4588.33   1.623
4591.08   1.632
4593.82   1.633
4596.57   1.628
4599.31   1.623
4602.06   1.622
4604.81   1.620
4607.55   1.616
4610.30   1.625
4613.04   1.593
4615.79   1.607
4618.54   1.629
4621.28   1.619
4624.03   1.583
4626.77   1.603
4629.52   1.590
4632.27   1.603
4635.01   1.617
4637.76   1.599
4640.50   1.584
4643.25   1.585
4646.00   1.581
4648.74   1.595
4651.49   1.575
4654.23   1.582
4656.98   1.536
4659.73   1.557
4662.47   1.571
4665.22   1.565
4667.96   1.583
4670.71   1.566
4673.46   1.565
4676.20   1.573
4678.95   1.571
4681.69   1.580
4684.44   1.573
4687.19   1.557
4689.93   1.571
4692.68   1.581
4695.42   1.545
4698.17   1.553
4700.92   1.551
4703.66   1.543
4706.41   1.537
4709.15   1.516
4711.90   1.507
4714.65   1.494
4717.39   1.511
4720.14   1.517
4722.88   1.519
4725.63   1.516
4728.38   1.525
4731.12   1.531
4733.87   1.519
4736.61   1.511
4739.36   1.511
4742.11   1.534
4744.85   1.520
4747.60   1.512
4750.34   1.514
4753.09   1.504
4755.84   1.514
4758.58   1.502
4761.33   1.508
4764.07   1.486
4766.82   1.494
4769.57   1.494
4772.31   1.495
4775.06   1.487
4777.80   1.481
4780.55   1.496
4783.30   1.504
4786.04   1.505
4788.79   1.489
4791.53   1.504
4794.28   1.500
4797.03   1.482
4799.77   1.460
4802.52   1.475
4805.26   1.458
4808.01   1.464
4810.76   1.457
4813.50   1.454
4816.25   1.450
4818.99   1.445
4821.74   1.452
4824.49   1.460
4827.23   1.438
4829.98   1.434
4832.72   1.431
4835.47   1.407
4838.22   1.393
4840.96   1.377
4843.71   1.369
4846.45   1.310
4849.20   1.282
4851.95   1.209
4854.69   1.091
4857.44   0.9793
4860.18   0.9169
4862.93   0.9612
4865.68   1.060
4868.42   1.168
4871.17   1.242
4873.91   1.296
4876.66   1.332
4879.41   1.355
4882.15   1.374
4884.90   1.393
4887.64   1.395
4890.39   1.401
4893.14   1.413
4895.88   1.401
4898.63   1.382
4901.37   1.397
4904.12   1.404
4906.87   1.395
4909.61   1.406
4912.36   1.393
4915.10   1.358
4917.85   1.331
4920.60   1.303
4923.34   1.313
4926.09   1.359
4928.83   1.395
4931.58   1.384
4934.33   1.398
4937.07   1.401
4939.82   1.397
4942.56   1.404
4945.31   1.393
4948.06   1.402
4950.80   1.394
4953.55   1.393
4956.29   1.373
4959.04   1.371
4961.79   1.382
4964.53   1.383
4967.28   1.361
4970.02   1.385
4972.77   1.368
4975.52   1.373
4978.26   1.354
4981.01   1.391
4983.75   1.397
4986.50   1.356
4989.25   1.368
4991.99   1.362
4994.74   1.371
4997.48   1.377
5000.23   1.362
5002.98   1.350
5005.72   1.350
5008.47   1.353
5011.21   1.342
5013.96   1.319
5016.71   1.305
5019.45   1.361
5022.20   1.350
5024.94   1.356
5027.69   1.361
5030.44   1.345
5033.18   1.342
5035.93   1.336
5038.67   1.325
5041.42   1.334
5044.17   1.325
5046.91   1.311
5049.66   1.318
5052.40   1.308
5055.15   1.307
5057.90   1.313
5060.64   1.332
5063.39   1.335
5066.13   1.330
5068.88   1.323
5071.63   1.335
5074.37   1.326
5077.12   1.319
5079.86   1.323
5082.61   1.302
5085.36   1.305
5088.10   1.322
5090.85   1.312
5093.59   1.315
5096.34   1.307
5099.09   1.306
5101.83   1.277
5104.58   1.294
5107.32   1.316
5110.07   1.312
5112.82   1.305
5115.56   1.307
5118.31   1.310
5121.05   1.297
5123.80   1.303
5126.55   1.282
5129.29   1.280
5132.04   1.293
5134.78   1.313
5137.53   1.292
5140.28   1.275
5143.02   1.291
5145.77   1.294
5148.51   1.280
5151.26   1.281
5154.01   1.272
5156.75   1.266
5159.50   1.277
5162.24   1.269
5164.99   1.276
5167.74   1.267
5170.48   1.277
5173.23   1.274
5175.97   1.270
5178.72   1.267
5181.47   1.270
5184.21   1.272
5186.96   1.273
5189.70   1.267
5192.45   1.273
5195.20   1.264
5197.94   1.246
5200.69   1.252
5203.43   1.265
5206.18   1.259
5208.93   1.250
5211.67   1.221
5214.42   1.207
5217.16   1.223
5219.91   1.247
5222.66   1.253
5225.40   1.231
5228.15   1.235
5230.89   1.239
5233.64   1.241
5236.39   1.236
5239.13   1.250
5241.88   1.250
5244.62   1.230
5247.37   1.244
5250.12   1.227
5252.86   1.227
5255.61   1.240
5258.35   1.222
5261.10   1.224
5263.85   1.229
5266.59   1.216
5269.34   1.211
5272.08   1.204
5274.83   1.191
5277.58   1.206
5280.32   1.230
5283.07   1.234
5285.81   1.217
5288.56   1.197
5291.31   1.208
5294.05   1.209
5296.80   1.217
5299.54   1.206
5302.29   1.190
5305.04   1.205
5307.78   1.190
5310.53   1.186
5313.27   1.193
5316.02   1.198
5318.77   1.190
5321.51   1.188
5324.26   1.167
5327.00   1.165
5329.75   1.184
5332.50   1.198
5335.24   1.193
5337.99   1.187
5340.73   1.166
5343.48   1.167
5346.23   1.172
5348.97   1.169
5351.72   1.177
5354.46   1.160
5357.21   1.156
5359.96   1.174
5362.70   1.178
5365.45   1.170
5368.19   1.158
5370.94   1.177
5373.69   1.180
5376.43   1.172
5379.18   1.171
5381.92   1.169
5384.67   1.155
5387.42   1.164
5390.16   1.178
5392.91   1.171
5395.65   1.161
5398.40   1.153
5402.76   1.095
5407.64   1.093
5412.52   1.083
5417.40   1.138
5422.29   1.140
5427.17   1.114
5432.05   1.106
5436.93   1.096
5441.81   1.109
5446.70   1.101
5451.58   1.110
5456.46   1.106
5461.34   1.097
5466.22   1.107
5471.11   1.098
5475.99   1.110
5480.87   1.104
5485.75   1.083
5490.63   1.117
5495.52   1.124
5500.40   1.103
5505.28   1.107
5510.16   1.114
5515.04   1.104
5519.93   1.118
5524.81   1.117
5529.69   1.093
5534.57   1.070
5539.45   1.078
5544.34   1.073
5549.22   1.093
5554.10   1.074
5558.98   1.084
5563.86   1.080
5568.75   1.080
5573.63   1.092
5578.51   1.073
5583.39   1.078
5588.27   1.044
5593.16   1.074
5598.04   1.064
5602.92   1.071
5607.80   1.050
5612.68   1.039
5617.57   1.066
5622.45   1.064
5627.33   1.042
5632.21   1.050
5637.09   1.035
5641.98   1.023
5646.86   1.016
5651.74   1.044
5656.62   1.043
5661.50   1.015
5666.39   1.026
5671.27   1.030
5676.15   1.030
5681.03   1.014
5685.91   1.033
5690.80   1.014
5695.68   1.011
5700.56   1.002
5705.44   1.004
5710.32   0.9924
5715.21   1.011
5720.09   1.013
5724.97   1.028
5729.85   0.9968
5734.73   1.011
5739.62   0.9861
5744.50   0.9876
5749.38   0.9976
5754.26   0.9619
5759.14   0.9747
5764.03   0.9824
5768.91   0.9728
5773.79   1.002
5778.67   0.9886
5783.55   0.9670
5788.44   0.9829
5793.32   0.9753
5798.20   0.9837
5803.08   0.9481
5807.96   0.9751
5812.85   0.9757
5817.73   0.9735
5822.61   0.9584
5827.49   0.9599
5832.37   0.9859
5837.26   0.9526
5842.14   0.9706
5847.02   0.9574
5851.90   0.9464
5856.78   0.9376
5861.67   0.9427
5866.55   0.9376
5871.43   0.9043
5876.31   0.9288
5881.19   0.9373
5886.08   0.9020
5890.96   0.9057
5895.84   0.9143
5900.72   0.9336
5905.60   0.9346
5910.49   0.9374
5915.37   0.9355
5920.25   0.9204
5925.13   0.9172
5930.01   0.9292
5934.90   0.9305
5939.78   0.9097
5944.66   0.9018
5949.54   0.9325
5954.42   0.9021
5959.31   0.8987
5964.19   0.9115
5969.07   0.9172
5973.95   0.8904
5978.83   0.8898
5983.72   0.9112
5988.60   0.9187
5993.48   0.9002
5998.36   0.8825
6003.24   0.9014
6008.13   0.9082
6013.01   0.8884
6017.89   0.8892
6022.77   0.8889
6027.65   0.8978
6032.54   0.8827
6037.42   0.9130
6042.30   0.8782
6047.18   0.8835
6052.06   0.8694
6056.95   0.8916
6061.83   0.8743
6066.71   0.8842
6071.59   0.8670
6076.47   0.8750
6081.36   0.8643
6086.24   0.8625
6091.12   0.8815
6096.00   0.8650
6100.88   0.8835
6105.77   0.8621
6110.65   0.8515
6115.53   0.8520
6120.41   0.8358
6125.29   0.8546
6130.18   0.8798
6135.06   0.8294
6139.94   0.8378
6144.82   0.8450
6149.70   0.8591
6154.59   0.8406
6159.47   0.8474
6164.35   0.8369
6169.23   0.8535
6174.11   0.8322
6179.00   0.8290
6183.88   0.8402
6188.76   0.8327
6193.64   0.8303
6198.52   0.8355
6203.41   0.8237
6208.29   0.8228
6213.17   0.8220
6218.05   0.8144
6222.93   0.8146
6227.82   0.8170
6232.70   0.8280
6237.58   0.8124
6242.46   0.8176
6247.34   0.8054
6252.23   0.8295
6257.11   0.8119
6261.99   0.7984
6266.87   0.8196
6271.75   0.8076
6276.64   0.8109
6281.52   0.8038
6286.40   0.8129
6291.28   0.8213
6296.16   0.8142
6301.05   0.8083
6305.93   0.8009
6310.81   0.8002
6315.69   0.7796
6320.57   0.7819
6325.46   0.7898
6330.34   0.7860
6335.22   0.7737
6340.10   0.7810
6344.98   0.7677
6349.87   0.7859
6354.75   0.7933
6359.63   0.7896
6364.51   0.7774
6369.39   0.7532
6374.28   0.7718
6379.16   0.7792
6384.04   0.7658
6388.92   0.7674
6393.80   0.7843
6398.69   0.7627
6403.57   0.7565
6408.45   0.7691
6413.33   0.7642
6418.21   0.7714
6423.10   0.7519
6427.98   0.7599
6432.86   0.7642
6437.74   0.7393
6442.62   0.7332
6447.51   0.7608
6452.39   0.7600
6457.27   0.7444
6462.15   0.7584
6467.03   0.7591
6471.92   0.7431
6476.80   0.7432
6481.68   0.7440
6486.56   0.7331
6491.44   0.7371
6496.33   0.7492
6501.21   0.7523
6506.09   0.7368
6510.97   0.7341
6515.85   0.7202
6520.74   0.7341
6525.62   0.7195
6530.50   0.7066
6535.38   0.7145
6540.26   0.6872
6545.15   0.6724
6550.03   0.6335
6554.91   0.6141
6559.79   0.5563
6564.67   0.5820
6569.56   0.6249
6574.44   0.6565
6579.32   0.6738
6584.20   0.6921
6589.08   0.7065
6593.97   0.7109
6598.85   0.7000
6603.73   0.7084
6608.61   0.7012
6613.49   0.7018
6618.38   0.7019
6623.26   0.6989
6628.14   0.6964
6633.02   0.7018
6637.90   0.7069
6642.79   0.7011
6647.67   0.7074
6652.55   0.7011
6657.43   0.7063
6662.31   0.6929
6667.20   0.6798
6672.08   0.6728
6676.96   0.6761
6681.84   0.6784
6686.72   0.6938
6691.61   0.6906
6696.49   0.6976
6701.37   0.6806
6706.25   0.6913
6711.13   0.6910
6716.02   0.6811
6720.90   0.6556
6725.78   0.6637
6730.66   0.6661
6735.54   0.6611
6740.43   0.6751
6745.31   0.6736
6750.19   0.6701
6755.07   0.6716
6759.95   0.6756
6764.84   0.6704
6769.72   0.6585
6774.60   0.6572
6779.48   0.6651
6784.36   0.6730
6789.25   0.6455
6794.13   0.6599
6799.01   0.6598
6803.89   0.6697
6808.77   0.6525
6813.66   0.6455
6818.54   0.6618
6823.42   0.6561
6828.30   0.6475
6833.18   0.6397
6838.07   0.6473
6842.95   0.6438
6847.83   0.6273
6852.71   0.6356
6857.59   0.6416
6862.48   0.6327
6867.36   0.6324
6872.24   0.6520
6877.12   0.6601
6882.00   0.6235
6886.89   0.6281
6891.77   0.6415
6896.65   0.6335
6901.53   0.6310
6906.41   0.6396
6911.30   0.6250
6916.18   0.6255
6921.06   0.6263
6925.94   0.6417
6930.82   0.6164
6935.71   0.6240
6940.59   0.6293
6945.47   0.6339
6950.35   0.6495
6955.23   0.6286
6960.12   0.6349
6965.00   0.6240
6969.88   0.6189
6974.76   0.6171
6979.64   0.6136
6984.53   0.6126
6989.41   0.6029
6994.29   0.6206
6999.17   0.6079
7004.05   0.5973
7008.94   0.5989
7013.82   0.6056
7018.70   0.6045
7023.58   0.6065
7028.46   0.6077
7033.35   0.6111
7038.23   0.6018
7043.11   0.6074
7047.99   0.6102
7052.87   0.5985
7057.76   0.5858
7062.64   0.5856
7067.52   0.5960
7072.40   0.5971
7077.28   0.6063
7082.17   0.5838
7087.05   0.5925
7091.93   0.5832
7096.81   0.5783
7101.69   0.5757
7106.58   0.5914
7111.46   0.5841
7116.34   0.5942
7121.22   0.6018
7126.10   0.5738
7130.99   0.5767
7135.87   0.5795
7140.75   0.5850
7145.63   0.5735
7150.51   0.5744
7155.40   0.5786
7160.28   0.5782
7165.16   0.5588
7170.04   0.5742
7174.92   0.5742
7179.81   0.5610
7184.69   0.5752
7189.57   0.5655
7194.45   0.5630
7199.33   0.5766
7204.22   0.5667
7209.10   0.5682
7213.98   0.5552
7218.86   0.5603
7223.74   0.5501
7228.63   0.5693
7233.51   0.5556
7238.39   0.5638
7243.27   0.5616
7248.15   0.5587
7253.04   0.5672
7257.92   0.5613
7262.80   0.5505
7267.68   0.5351
7272.56   0.5313
7277.45   0.5543
7282.33   0.5379
7287.21   0.5534
7292.09   0.5497
7296.97   0.5589
7301.86   0.5513
7306.74   0.5395
7311.62   0.5543
7316.50   0.5478
7321.38   0.5393
7326.27   0.5291
7331.15   0.5375
7336.03   0.5193
7340.91   0.5443
7345.79   0.5452
7350.68   0.5352
7355.56   0.5259
7360.44   0.5316
7365.32   0.5270
7370.20   0.5284
7375.09   0.5156
7379.97   0.5241
7384.85   0.5330
7389.73   0.5277
7394.61   0.5284
7399.50   0.5294
7404.38   0.5251
7409.26   0.5091
7414.14   0.5087
7419.02   0.5206
7423.91   0.5190
7428.79   0.5113
7433.67   0.5096
7438.55   0.5282
7443.43   0.5272
7448.32   0.5143
7453.20   0.5082
7458.08   0.5145
7462.96   0.4940
7467.84   0.5003
7472.73   0.5023
7477.61   0.5060
7482.49   0.5082
7487.37   0.5079
7492.25   0.4980
7497.14   0.5041
7502.02   0.5082
7506.90   0.5043
7511.78   0.4968
7516.66   0.5026
7521.55   0.5022
7526.43   0.5075
7531.31   0.5017
7536.19   0.5101
7541.07   0.5086
7545.96   0.4900
7550.84   0.4826
7555.72   0.4745
7560.60   0.4800
7565.48   0.4782
7570.37   0.4929
7575.25   0.4948
7580.13   0.4917
7585.01   0.4798
7589.89   0.4900
7594.78   0.4902
7599.66   0.4693
7604.54   0.4754
7609.42   0.4708
7614.30   0.4749
7619.19   0.4935
7624.07   0.4762
7628.95   0.4910
7633.83   0.4843
7638.71   0.4822
7643.60   0.4767
7648.48   0.4780
7653.36   0.4683
7658.24   0.4611
7663.12   0.4557
7668.01   0.4804
7672.89   0.4757
7677.77   0.4709
7682.65   0.4809
7687.53   0.4874
7692.42   0.4652
7697.30   0.4843
7702.18   0.4639
7707.06   0.4379
7711.94   0.4482
7716.83   0.4455
7721.71   0.4468
7726.59   0.4668
7731.47   0.4560
7736.35   0.4907
7741.24   0.4694
7746.12   0.4735
7751.00   0.4549
7755.88   0.4588
7760.76   0.4384
7765.65   0.4372
7770.53   0.4275
7775.41   0.4382
7780.29   0.4498
7785.17   0.4541
7790.06   0.4591
7794.94   0.4622
7799.82   0.4493
7804.70   0.4256
7809.58   0.4390
7814.47   0.4257
7819.35   0.4266
7824.23   0.4338
7829.11   0.4355
7833.99   0.4440
7838.88   0.4430
7843.76   0.4444
7848.64   0.4493
7853.52   0.4501
7858.40   0.4413
7863.29   0.4443
7868.17   0.4160
7873.05   0.4093
7877.93   0.4161
7882.81   0.4136
7887.70   0.4273
7892.58   0.4312
7897.46   0.4429
7902.34   0.4468
7907.22   0.4283
7912.11   0.4437
7916.99   0.4447
7921.87   0.4354
7926.75   0.4253
7931.63   0.4230
7936.52   0.4236
7941.40   0.4260
7946.28   0.4172
7951.16   0.4034
7956.04   0.4021
7960.93   0.4069
7965.81   0.4249
7970.69   0.4197
7975.57   0.4216
7980.45   0.4131
7985.34   0.4290
7990.22   0.4259
7995.10   0.4054
7999.98   0.4093
8004.86   0.4007
8009.75   0.3877
8014.63   0.3857
8019.51   0.4005
8024.39   0.4103
8029.27   0.3961
8034.16   0.4186
8039.04   0.4135
8043.92   0.4137
8048.80   0.3852
8053.68   0.3861
8058.57   0.3919
8063.45   0.3787
8068.33   0.3793
8073.21   0.3957
8078.09   0.3880
8082.98   0.3995
8087.86   0.3969
8092.74   0.3930
8097.62   0.3796
8102.50   0.3654
8107.39   0.3719
8112.27   0.3806
8117.15   0.3733
8122.03   0.3836
8126.91   0.3929
8131.80   0.3700
8136.68   0.3630
8141.56   0.3861
8146.44   0.3806
8151.32   0.3868
8156.21   0.3748
8161.09   0.3919
8165.97   0.3718
8170.85   0.3735
8175.73   0.3683
8180.62   0.3503
8185.50   0.3780
8190.38   0.3642
8195.26   0.3857
8200.14   0.3652
8205.03   0.3550
8209.91   0.3487
8214.79   0.3687
8219.67   0.3689
8224.55   0.3671
8229.44   0.3599
8234.32   0.3846
8239.20   0.3799
8244.08   0.3584
8248.96   0.3613
8253.85   0.3543
8258.73   0.3411
8263.61   0.3574
8268.49   0.3629
8273.37   0.3670
8278.26   0.3531
8283.14   0.3619
8288.02   0.3647
8292.90   0.3568
8297.78   0.3381
8302.67   0.3549
8307.55   0.3373
8312.43   0.3462
8317.31   0.3474
8322.19   0.3586
8327.08   0.3516
8331.96   0.3453
8336.84   0.3406
8341.72   0.3537
8346.60   0.3601
8351.49   0.3480
8356.37   0.3453
8361.25   0.3368
8366.13   0.3127
8371.01   0.3329
8375.90   0.3190
8380.78   0.3256
8385.66   0.3054
8390.54   0.3250
8395.42   0.3537
8400.31   0.3182
8405.19   0.3327
8410.07   0.3483
8414.95   0.3554
8419.83   0.3435
8424.72   0.3377
8429.60   0.3533
8434.48   0.3349
8439.36   0.3350
8444.24   0.3303
8449.13   0.3380
8454.01   0.3171
8458.89   0.2903
8463.77   0.3215
8468.65   0.3037
8473.54   0.3128
8478.42   0.3157
8483.30   0.3285
8488.18   0.3123
8493.06   0.3344
8497.95   0.3347
8502.83   0.3357
8507.71   0.3240
8512.59   0.3436
8517.47   0.3325
8522.36   0.3291
8527.24   0.3166
8532.12   0.3129
8537.00   0.3143
8541.88   0.2921
8546.77   0.2900
8551.65   0.3026
8556.53   0.3077
8561.41   0.3089
8566.29   0.3289
8571.18   0.3374
8576.06   0.3268
8580.94   0.3194
8585.82   0.3277
8590.70   0.3175
8595.59   0.3210
8600.47   0.3019
8605.35   0.3091
8610.23   0.3019
8615.11   0.3060
8620.00   0.2899
8624.88   0.3056
8629.76   0.3052
8634.64   0.2964
8639.52   0.3005
8644.41   0.3204
8649.29   0.3024
8654.17   0.3153
8659.05   0.3160
8663.93   0.2966
8668.82   0.2936
8673.70   0.2793
8678.58   0.3000
8683.46   0.3060
8688.34   0.2978
8693.23   0.3211
8698.11   0.3398
8702.99   0.3189
8707.87   0.3309
8712.75   0.3265
8717.64   0.3153
8722.52   0.2992
8727.40   0.2996
8732.28   0.2855
8737.16   0.2803
8742.05   0.2601
8746.93   0.2677
8751.81   0.2800
8756.69   0.2711
8761.57   0.2878
8766.46   0.3099
8771.34   0.3085
8776.22   0.3167
8781.10   0.3230
8785.98   0.3177
8790.87   0.3181
8795.75   0.3058
8800.63   0.3033
8805.51   0.3109
8810.39   0.3043
8815.28   0.2872
8820.16   0.2987
8825.04   0.2946
8829.92   0.2818
8834.80   0.2864
8839.69   0.2915
8844.57   0.2648
8849.45   0.2659
8854.33   0.2687
8859.21   0.2619
8864.10   0.2533
8868.98   0.2721
8873.86   0.2685
8878.74   0.2719
8883.62   0.2921
8888.51   0.2904
8893.39   0.2981
8898.27   0.2959
8903.15   0.2801
8908.03   0.2833
8912.92   0.2943
8917.80   0.2935
8922.68   0.2885
8927.56   0.2860
8932.44   0.2893
8937.33   0.3003
8942.21   0.2988
8947.09   0.2915
8951.97   0.2926
8956.85   0.2839
8961.74   0.3036
8966.62   0.3047
8971.50   0.2909
8976.38   0.2957
8981.26   0.2732
8986.15   0.2461
8991.03   0.2617
8995.91   0.2596
9000.79   0.2559
9005.67   0.2297
9010.56   0.2406
9015.44   0.2514
9020.32   0.2394
9025.20   0.2572
9030.08   0.2772
9034.97   0.2943
9039.85   0.2897
9044.73   0.3014
9049.61   0.2920
9054.49   0.2979
9059.38   0.2853
9064.26   0.2745
9069.14   0.2819
9074.02   0.2665
9078.90   0.2524
9083.79   0.2666
9088.67   0.2756
9093.55   0.2673
9098.43   0.2822
9103.31   0.2882
9108.20   0.3003
9113.08   0.3060
9117.96   0.3043
9122.84   0.3191
9127.72   0.3047
9132.61   0.2993
9137.49   0.2992
9142.37   0.2728
9147.25   0.2500
9152.13   0.2705
9157.02   0.2526
9161.90   0.2365
9166.78   0.2319
9171.66   0.2526
9176.54   0.2482
9181.43   0.2546
9186.31   0.2741
9191.19   0.2889
9196.07   0.2741
9200.95   0.2784
9205.84   0.2808
9210.72   0.2656
9215.60   0.2516
9220.48   0.2314
9225.36   0.2046
9230.25   0.2042
9235.13   0.1945
9240.01   0.2150
9244.89   0.2289
9249.77   0.2264
9254.66   0.2511
9259.54   0.2494
9264.42   0.2591
9269.30   0.2670
9274.18   0.2706
9279.07   0.2852
9283.95   0.2760
9288.83   0.2656
9293.71   0.2488
9298.59   0.2483
9303.48   0.2245
9308.36   0.2163
9313.24   0.2263
9318.12   0.2272
9323.00   0.2310
9327.89   0.2358
9332.77   0.2325
9337.65   0.2399
9342.53   0.2531
9347.41   0.2488
9352.30   0.2580
9357.18   0.2645
9362.06   0.2756
9366.94   0.2830
9371.82   0.2796
9376.71   0.2549
9381.59   0.2737
9386.47   0.2641
9391.35   0.2295
9396.23   0.2140
9401.12   0.2177
9406.00   0.2164
9410.88   0.1988
9415.76   0.2059
9420.64   0.2299
9425.53   0.2239
9430.41   0.2178
9435.29   0.2401
9440.17   0.2486
9445.05   0.2508
9449.94   0.2631
9454.82   0.2814
9459.70   0.2507
9464.58   0.2386
9469.46   0.2338
9474.35   0.2102
9479.23   0.2057
9484.11   0.1836
9488.99   0.1950
9493.87   0.2124
9498.76   0.1984
9503.64   0.2035
9508.52   0.2088
9513.40   0.1957
9518.28   0.1992
9523.17   0.2142
9528.05   0.2334
9532.93   0.2093
9537.81   0.2243
9542.69   0.2195
9547.58   0.1974
9552.46   0.1859
9557.34   0.1883
9562.22   0.1813
9567.10   0.1830
9571.99   0.1801
9576.87   0.1740
9581.75   0.1865
9586.63   0.2021
9591.51   0.1930
9596.40   0.2224
9601.28   0.2287
9606.16   0.2249
9611.04   0.2467
9615.92   0.2461
9620.81   0.2136
9625.69   0.1879
9630.57   0.1969
9635.45   0.1860
9640.33   0.1822
9645.22   0.1883
9650.10   0.1820
9654.98   0.1971
9659.86   0.2158
9664.74   0.2343
9669.63   0.2453
9674.51   0.2384
9679.39   0.2313
9684.27   0.2332
9689.15   0.2152
9694.04   0.2060
9698.92   0.1875
9703.80   0.1930
9708.68   0.1588
9713.56   0.1747
9718.45   0.1745
9723.33   0.1864
9728.21   0.1658
9733.09   0.1801
9737.97   0.1851
9742.86   0.1883
9747.74   0.1897
9752.62   0.1922
9757.50   0.2170
9762.38   0.2175
9767.27   0.2130
9772.15   0.2287
9777.03   0.2246
9781.91   0.2251
9786.79   0.2069
9791.68   0.1936
9796.56   0.1816
9801.44   0.1764
9806.32   0.1774
9811.20   0.1782
9816.09   0.1607
9820.97   0.1570
9825.85   0.1819
9830.73   0.1862
9835.61   0.1904
9840.50   0.1950
9845.38   0.2142
9850.26   0.2132
9855.14   0.2284
9860.02   0.2270
9864.91   0.1785
9869.79   0.1900
9874.67   0.1792
9879.55   0.1777
9884.43   0.1695
9889.32   0.1682
9894.20   0.1696
9899.08   0.1740
9903.96   0.1436
9908.84   0.1643
9913.73   0.1527
9918.61   0.1853
9923.49   0.1510
9928.37   0.1674
9933.25   0.1629
9938.14   0.1780
9943.02   0.1724
9947.90   0.1728
9952.78   0.1847
9957.66   0.1811
9962.55   0.1732
9967.43   0.1827
9972.31   0.1923
9977.19   0.1804
9982.07   0.1835
9986.96   0.2000
9991.84   0.2071
9996.72   0.1815
10001.6   0.1783
10006.5   0.1702
10011.4   0.1476
10016.2   0.1373
10021.1   0.1392
10026.0   0.1289
10030.9   0.1279
10035.8   0.1282
10040.7   0.1354
10045.5   0.1165
10050.4   0.1153
10055.3   0.1297
10060.2   0.1338
10065.1   0.1302
10070.0   0.1627
10074.8   0.1604
10079.7   0.1652
10084.6   0.1386
10089.5   0.1925
10094.4   0.1943
10099.2   0.1465
10104.1   0.1762
10109.0   0.1906
10113.9   0.1632
10118.8   0.1375
10123.7   0.1491
10128.5   0.1529
10133.4   0.1222
10138.3   0.1232
10143.2   0.1472
10148.1   0.1386
10152.9   0.1352
10157.8   0.1242
10162.7   0.09164
10167.6   0.1199
10172.5   0.1129
10177.4   0.1186
10182.2   0.1486
10187.1   0.1365
10192.0   0.1341
10196.9   0.1511
10201.8   0.1585
10206.6   0.1523
10211.5   0.1756
10216.4   0.1737
10221.3   0.1508
10226.2   0.1318
10231.1   0.1427
10235.9   0.1374
10240.8   0.1089
10245.7   0.09151
